BIOZ1,BIOZ2,BIOZ3,BIOZ4,ECG,PPG,EXC_FREQ_KHZ,MUX_CONFIG,PACKET_NUMBER
1026.171268602366,1.649247121851331,0,0,8006,8481,1,1,220
1026.2656186836005,1.6602055887054497,0,0,7990,8481,1,1,221
1026.1818084105962,1.7046147666425464,0,0,7405,8481,1,1,222
1026.1744255956146,1.6600580642521607,0,0,5750,8481,1,1,223
1026.1744255956146,1.649218314340164,0,0,4087,8481,1,1,224
1026.3388973504052,1.6494826454552518,0,0,2455,8481,1,1,225
1026.21036210615,1.6493648754969188,0,0,930,8481,1,1,226
1026.1477214815538,1.6493360618149864,0,0,16,8481,1,1,227
1026.192434660617,1.6493360618149864,0,0,0,8481,1,1,228
1026.1688099168457,1.6397113770605083,0,0,0,8481,1,1,229
1026.2029774447485,1.6397113770605083,0,0,0,8481,1,1,230
1026.2029774447485,1.6313240515867868,0,0,0,8481,1,1,231
1026.2209050744627,1.631352550601293,0,0,0,8481,1,1,232
1026.21036210615,1.631352550601293,0,0,0,8481,1,1,233
1026.2029774447485,1.6313240515867868,0,0,0,8481,1,1,234
1026.0923867664726,1.6765302294954805,0,0,0,8481,1,1,235
1026.1191739282162,1.639594316699945,0,0,0,8481,1,1,236
1026.1656481459534,1.6397400226004766,0,0,0,8481,1,1,237
1026.21036210615,1.6397400226004766,0,0,0,8481,1,1,238
1026.1551066666018,1.6397400226004766,0,0,0,8481,1,1,239
1026.1656481459534,1.6397400226004766,0,0,0,8481,1,1,240
1026.21036210615,1.6602055887054497,0,0,0,8481,1,1,241
1026.2209050744627,1.6602055887054497,0,0,0,8481,1,1,242
1026.12971595969,1.6600580642521607,0,0,0,8481,1,1,243
1026.1265572669145,1.649247121851331,0,0,0,8481,1,1,244
1026.1818084105962,1.649247121851331,0,0,0,8481,1,1,245
1026.1265572669145,1.649247121851331,0,0,347,8481,1,1,246
1026.0850064320898,1.649218314340164,0,0,1241,8481,1,1,247
1026.1818084105962,1.639622956105157,0,0,2327,8481,1,1,248
1026.2550761746415,1.6397400226004766,0,0,3506,8481,1,1,249
1026.1744255956146,1.639594316699945,0,0,4752,8481,1,1,250
1026.21036210615,1.631352550601293,0,0,6007,8481,1,1,251
1026.1923501668903,1.6312360829155028,0,0,7297,8481,1,1,252
1026.145877618028,1.631091144551597,0,0,7988,8481,1,1,253
1026.1744255956146,1.6312075900043728,0,0,8006,8481,1,1,254
1026.1744255956146,1.6765009454284245,0,0,7990,8481,1,1,255
1026.1744255956146,1.639594316699945,0,0,8006,8481,1,1,0
1026.2191353398498,1.639594316699945,0,0,7990,8481,1,1,1
1026.1923501668903,1.639622956105157,0,0,8006,8481,1,1,2
1026.1818084105962,1.639622956105157,0,0,7990,8481,1,1,3
1026.21036210615,1.6397400226004766,0,0,8006,8481,1,1,4
1026.1744255956146,1.6600580642521607,0,0,7990,8481,1,1,5
1026.1191739282162,1.6600580642521607,0,0,8006,8481,1,1,6
1026.2029774447485,1.660176585641006,0,0,7990,8481,1,1,7
1026.2550761746415,1.6493648754969188,0,0,8006,8481,1,1,8
1026.2476902727592,1.6493360618149864,0,0,7990,8481,1,1,9
1026.2550761746415,1.6493648754969188,0,0,8006,8481,1,1,10
1026.1818084105962,1.649247121851331,0,0,7990,8481,1,1,11
1026.2029774447485,1.6397113770605083,0,0,8006,8481,1,1,12
1026.2656186836005,1.6397400226004766,0,0,7990,8481,1,1,13
1026.2550761746415,1.6397400226004766,0,0,8006,8481,1,1,14
1026.2762490783794,1.631440529302081,0,0,7990,8481,1,1,15
1026.1818084105962,1.6312360829155028,0,0,8006,8481,1,1,16
1026.2550761746415,1.631352550601293,0,0,7990,8481,1,1,17
1026.2029774447485,1.6397113770605083,0,0,7237,8481,1,1,18
1026.1998210861154,1.676649931111961,0,0,5667,8481,1,1,19
1026.21036210615,1.684811914981079,0,0,4122,8481,1,1,20
1026.2476902727592,1.6397113770605083,0,0,2618,8481,1,1,21
1026.21036210615,1.6397400226004766,0,0,1220,8481,1,1,22
1026.0744639412642,1.639594316699945,0,0,125,8481,1,1,23
1026.0744639412642,1.639594316699945,0,0,0,8481,1,1,24
1026.1370975343907,1.6600870611052807,0,0,0,8481,1,1,25
1026.192434660617,1.660176585641006,0,0,0,8481,1,1,26
1026.1370975343907,1.6600870611052807,0,0,0,8481,1,1,27
1026.163884023454,1.649218314340164,0,0,0,8481,1,1,28
1026.1744255956146,1.649218314340164,0,0,0,8481,1,1,29
1026.171268602366,1.649247121851331,0,0,0,8481,1,1,30
1026.1265572669145,1.649247121851331,0,0,0,8481,1,1,31
1026.1191739282162,1.639594316699945,0,0,0,8481,1,1,32
1026.1370975343907,1.639622956105157,0,0,0,8481,1,1,33
1026.171268602366,1.639622956105157,0,0,0,8481,1,1,34
1026.2550761746415,1.631352550601293,0,0,0,8481,1,1,35
1026.1744255956146,1.6312075900043728,0,0,0,8481,1,1,36
1026.1370975343907,1.6312360829155028,0,0,0,8481,1,1,37
1026.1744255956146,1.6312075900043728,0,0,0,8481,1,1,38
1025.9906767567638,1.6763812666622973,0,0,0,8481,1,1,39
1026.12971595969,1.684662204030614,0,0,72,8481,1,1,40
1026.12971595969,1.639594316699945,0,0,722,8481,1,1,41
1026.1370975343907,1.639622956105157,0,0,1682,8481,1,1,42
1026.21036210615,1.6493648754969188,0,0,2787,8481,1,1,43
1026.1265572669145,1.6940597749611888,0,0,3995,8481,1,1,44
1026.12971595969,1.6600580642521607,0,0,5235,8481,1,1,45
1026.171268602366,1.6600870611052807,0,0,6512,8481,1,1,46
1026.192434660617,1.660176585641006,0,0,7699,8481,1,1,47
1026.1818084105962,1.649247121851331,0,0,8006,8481,1,1,48
1026.2476902727592,1.6493360618149864,0,0,7990,8481,1,1,49
1026.1818084105962,1.649247121851331,0,0,8006,8481,1,1,50
1026.1370975343907,1.649247121851331,0,0,7990,8481,1,1,51
1026.171268602366,1.649247121851331,0,0,8006,8481,1,1,52
1026.2582345456535,1.6397113770605083,0,0,7990,8481,1,1,53
1026.2656186836005,1.6397400226004766,0,0,8006,8481,1,1,54
1026.2029774447485,1.6313240515867868,0,0,7990,8481,1,1,55
1026.145877618028,1.631091144551597,0,0,8006,8481,1,1,56
1026.1011710654448,1.631091144551597,0,0,7990,8481,1,1,57
1026.1818084105962,1.6312360829155028,0,0,8006,8481,1,1,58
1026.1818084105962,1.6312360829155028,0,0,7990,8481,1,1,59
1026.1818084105962,1.6312360829155028,0,0,8006,8481,1,1,60
1026.163884023454,1.684662204030614,0,0,7990,8481,1,1,61
1026.1818084105962,1.6846916306534168,0,0,8006,8481,1,1,62
1026.1818084105962,1.639622956105157,0,0,7990,8481,1,1,63
1026.1191739282162,1.684662204030614,0,0,8006,8481,1,1,64
1026.1818084105962,1.6600870611052807,0,0,7990,8481,1,1,65
1026.171268602366,1.6600870611052807,0,0,8006,8481,1,1,66
1026.1818084105962,1.6600870611052807,0,0,7990,8481,1,1,67
1026.215980046051,1.649247121851331,0,0,7985,8481,1,1,68
1026.1923501668903,1.649247121851331,0,0,6962,8481,1,1,69
1026.1191739282162,1.649218314340164,0,0,5396,8481,1,1,70
1026.1191739282162,1.649218314340164,0,0,3826,8481,1,1,71
1026.1370975343907,1.649247121851331,0,0,2344,8481,1,1,72
1026.0744639412642,1.639594316699945,0,0,958,8481,1,1,73
1026.2209050744627,1.6397400226004766,0,0,40,8481,1,1,74
1026.1818084105962,1.6312360829155028,0,0,0,8481,1,1,75
1026.1476397500057,1.6312360829155028,0,0,0,8481,1,1,76
1026.1191739282162,1.6312075900043728,0,0,0,8481,1,1,77
1026.2389196745403,1.6398571053133486,0,0,0,8481,1,1,78
1026.1370975343907,1.6312360829155028,0,0,0,8481,1,1,79
1026.15826472507,1.6313240515867868,0,0,0,8481,1,1,80
1026.1688099168457,1.6397113770605083,0,0,0,8481,1,1,81
1026.1370975343907,1.6846916306534168,0,0,0,8481,1,1,82
1026.1998210861154,1.684811914981079,0,0,0,8481,1,1,83
1026.2389196745403,1.6398571053133486,0,0,0,8481,1,1,84
1026.1370975343907,1.6600870611052807,0,0,0,8481,1,1,85
1026.192434660617,1.6493360618149864,0,0,0,8481,1,1,86
1026.21036210615,1.6602055887054497,0,0,0,8481,1,1,87
1026.21036210615,1.6493648754969188,0,0,0,8481,1,1,88
1026.21036210615,1.6493648754969188,0,0,0,8481,1,1,89
1026.2209050744627,1.6493648754969188,0,0,378,8481,1,1,90
1026.21036210615,1.6493648754969188,0,0,1236,8481,1,1,91
1026.192434660617,1.6397113770605083,0,0,2288,8481,1,1,92
1026.2476902727592,1.6397113770605083,0,0,3448,8481,1,1,93
1026.2029774447485,1.6397113770605083,0,0,4696,8481,1,1,94
1026.1191739282162,1.6312075900043728,0,0,5967,8481,1,1,95
1026.163884023454,1.6312075900043728,0,0,7282,8481,1,1,96
1026.21036210615,1.631352550601293,0,0,7988,8481,1,1,97
1026.2997903514142,1.631352550601293,0,0,8006,8481,1,1,98
1026.2550761746415,1.631352550601293,0,0,7990,8481,1,1,99
1026.1818084105962,1.639622956105157,0,0,8006,8481,1,1,100
1026.2997903514142,1.6397400226004766,0,0,7990,8481,1,1,101
1026.2550761746415,1.6397400226004766,0,0,8006,8481,1,1,102
1026.208594226963,1.639594316699945,0,0,7990,8481,1,1,103
1026.1744255956146,1.649218314340164,0,0,8006,8481,1,1,104
1026.1818084105962,1.649247121851331,0,0,7990,8481,1,1,105
1026.163884023454,1.6600580642521607,0,0,8006,8481,1,1,106
1026.163884023454,1.6600580642521607,0,0,7990,8481,1,1,107
1026.1744255956146,1.649218314340164,0,0,8006,8481,1,1,108
1026.237060692087,1.649247121851331,0,0,7990,8481,1,1,109
1026.1818084105962,1.649247121851331,0,0,8006,8481,1,1,110
1026.2476902727592,1.6397113770605083,0,0,7990,8481,1,1,111
1026.2656186836005,1.6397400226004766,0,0,8006,8481,1,1,112
1026.226519395075,1.639622956105157,0,0,7990,8481,1,1,113
1026.2191353398498,1.639594316699945,0,0,8006,8481,1,1,114
1026.226519395075,1.6312360829155028,0,0,7990,8481,1,1,115
1026.2656186836005,1.631352550601293,0,0,8006,8481,1,1,116
1026.2550761746415,1.631352550601293,0,0,7990,8481,1,1,117
1026.1818084105962,1.6312360829155028,0,0,8006,8481,1,1,118
1026.21036210615,1.631352550601293,0,0,7349,8481,1,1,119
1026.2924032090882,1.6397113770605083,0,0,5747,8481,1,1,120
1026.1744255956146,1.639594316699945,0,0,4108,8481,1,1,121
1026.21036210615,1.6397400226004766,0,0,2545,8481,1,1,122
1026.1265572669145,1.639622956105157,0,0,1076,8481,1,1,123
1026.21036210615,1.6397400226004766,0,0,56,8481,1,1,124
1026.2029774447485,1.660176585641006,0,0,0,8481,1,1,125
1026.1656481459534,1.6602055887054497,0,0,0,8481,1,1,126
1026.12971595969,1.6600580642521607,0,0,0,8481,1,1,127
1026.1191739282162,1.649218314340164,0,0,0,8481,1,1,128
1026.0906302458054,1.6491005831730727,0,0,0,8481,1,1,129
1026.171268602366,1.649247121851331,0,0,0,8481,1,1,130
1026.0923867664726,1.639622956105157,0,0,0,8481,1,1,131
1026.1998210861154,1.6493648754969188,0,0,0,8481,1,1,132
1026.2029774447485,1.6397113770605083,0,0,0,8481,1,1,133
1026.1191739282162,1.639594316699945,0,0,0,8481,1,1,134
1026.15826472507,1.6313240515867868,0,0,0,8481,1,1,135
1026.2209050744627,1.631352550601293,0,0,0,8481,1,1,136
1026.1476397500057,1.6312360829155028,0,0,0,8481,1,1,137
1026.1476397500057,1.639622956105157,0,0,0,8481,1,1,138
1026.1265572669145,1.6312360829155028,0,0,0,8481,1,1,139
1026.12971595969,1.6312075900043728,0,0,0,8481,1,1,140
1026.1818084105962,1.639622956105157,0,0,0,8481,1,1,141
1026.0980117386925,1.639505905824131,0,0,152,8481,1,1,142
1026.21036210615,1.6397400226004766,0,0,927,8481,1,1,143
1026.1191739282162,1.649218314340164,0,0,1966,8481,1,1,144
1026.208594226963,1.6600580642521607,0,0,3137,8481,1,1,145
1026.1191739282162,1.6600580642521607,0,0,4400,8481,1,1,146
1026.1818084105962,1.6600870611052807,0,0,5687,8481,1,1,147
1026.21036210615,1.6493648754969188,0,0,7013,8481,1,1,148
1026.2656186836005,1.6493648754969188,0,0,7948,8481,1,1,149
1026.2191353398498,1.649218314340164,0,0,8006,8481,1,1,150
1026.2550761746415,1.6493648754969188,0,0,7990,8481,1,1,151
1026.2476902727592,1.6397113770605083,0,0,8006,8481,1,1,152
1026.1818084105962,1.639622956105157,0,0,7990,8481,1,1,153
1026.2924032090882,1.6397113770605083,0,0,8006,8481,1,1,154
1026.163884023454,1.6312075900043728,0,0,7990,8481,1,1,155
1026.2997903514142,1.631352550601293,0,0,8006,8481,1,1,156
1026.1923501668903,1.6312360829155028,0,0,7990,8481,1,1,157
1026.2550761746415,1.631352550601293,0,0,8006,8481,1,1,158
1026.2371479479734,1.6313240515867868,0,0,7990,8481,1,1,159
1026.2476902727592,1.6397113770605083,0,0,8006,8481,1,1,160
1026.2656186836005,1.6397400226004766,0,0,7990,8481,1,1,161
1026.2656186836005,1.6397400226004766,0,0,8006,8481,1,1,162
1026.2924032090882,1.6493360618149864,0,0,7990,8481,1,1,163
1026.226519395075,1.639622956105157,0,0,8006,8481,1,1,164
1026.171268602366,1.649247121851331,0,0,7990,8481,1,1,165
1026.21036210615,1.6602055887054497,0,0,8006,8481,1,1,166
1026.2550761746415,1.6602055887054497,0,0,7990,8481,1,1,167
1026.12971595969,1.649218314340164,0,0,8006,8481,1,1,168
1026.226519395075,1.649247121851331,0,0,7990,8481,1,1,169
1026.226519395075,1.649247121851331,0,0,8006,8481,1,1,170
1026.2476902727592,1.6493360618149864,0,0,7421,8481,1,1,171
1026.1744255956146,1.649218314340164,0,0,5836,8481,1,1,172
1026.21036210615,1.6397400226004766,0,0,4201,8481,1,1,173
1026.2550761746415,1.6397400226004766,0,0,2637,8481,1,1,174
1026.1191739282162,1.6312075900043728,0,0,1163,8481,1,1,175
1026.12971595969,1.6312075900043728,0,0,85,8481,1,1,176
1026.2550761746415,1.631352550601293,0,0,0,8481,1,1,177
1026.171268602366,1.6312360829155028,0,0,0,8481,1,1,178
1026.1370975343907,1.6312360829155028,0,0,0,8481,1,1,179
1026.21036210615,1.631352550601293,0,0,0,8481,1,1,180
1026.1265572669145,1.639622956105157,0,0,0,8481,1,1,181
1026.21036210615,1.6397400226004766,0,0,0,8481,1,1,182
1026.1370975343907,1.639622956105157,0,0,0,8481,1,1,183
1026.1191739282162,1.639594316699945,0,0,0,8481,1,1,184
1026.21036210615,1.6493648754969188,0,0,0,8481,1,1,185
1026.108633844848,1.6600580642521607,0,0,0,8481,1,1,186
1026.21036210615,1.6602055887054497,0,0,0,8481,1,1,187
1026.1191739282162,1.649218314340164,0,0,0,8481,1,1,188
1026.1744255956146,1.649218314340164,0,0,0,8481,1,1,189
1026.1370975343907,1.649247121851331,0,0,0,8481,1,1,190
1026.1265572669145,1.649247121851331,0,0,0,8481,1,1,191
1026.12971595969,1.649218314340164,0,0,0,8481,1,1,192
1026.1370975343907,1.639622956105157,0,0,98,8481,1,1,193
1026.237060692087,1.639622956105157,0,0,826,8481,1,1,194
1026.2550761746415,1.631352550601293,0,0,1863,8481,1,1,195
1026.144476084763,1.6312645685072955,0,0,3065,8481,1,1,196
1026.15826472507,1.6313240515867868,0,0,4349,8481,1,1,197
1026.1744255956146,1.639594316699945,0,0,5706,8481,1,1,198
1026.21036210615,1.631352550601293,0,0,7061,8481,1,1,199
1026.1923501668903,1.639622956105157,0,0,7984,8481,1,1,200
1026.1923501668903,1.639622956105157,0,0,7990,8481,1,1,201
1026.1818084105962,1.639622956105157,0,0,8006,8481,1,1,202
1026.192434660617,1.6397113770605083,0,0,7990,8481,1,1,203
1026.1818084105962,1.639622956105157,0,0,8006,8481,1,1,204
1026.226519395075,1.6600870611052807,0,0,7990,8481,1,1,205
1026.2476902727592,1.660176585641006,0,0,8006,8481,1,1,206
1026.1744255956146,1.6600580642521607,0,0,7990,8481,1,1,207
1026.3103324010583,1.6493648754969188,0,0,8006,8481,1,1,208
1026.2191353398498,1.649218314340164,0,0,7990,8481,1,1,209
1026.1818084105962,1.649247121851331,0,0,8006,8481,1,1,210
1026.1191739282162,1.649218314340164,0,0,7990,8481,1,1,211
1026.2550761746415,1.6397400226004766,0,0,8006,8481,1,1,212
1026.1744255956146,1.639594316699945,0,0,7990,8481,1,1,213
1026.1923501668903,1.639622956105157,0,0,8006,8481,1,1,214
1026.215980046051,1.6312360829155028,0,0,7990,8481,1,1,215
1026.1849691157445,1.6312075900043728,0,0,8006,8481,1,1,216
1026.2476902727592,1.6313240515867868,0,0,7990,8481,1,1,217
1026.1923501668903,1.6312360829155028,0,0,8006,8481,1,1,218
1026.1370975343907,1.6312360829155028,0,0,7990,8481,1,1,219
1026.2582345456535,1.6313240515867868,0,0,8006,8481,1,1,220
1026.163799131613,1.639505905824131,0,0,7990,8481,1,1,221
1026.2656186836005,1.6397400226004766,0,0,8006,8481,1,1,222
1026.1265572669145,1.649247121851331,0,0,7416,8481,1,1,223
1026.1998210861154,1.6397400226004766,0,0,5826,8481,1,1,224
1026.1818084105962,1.6600870611052807,0,0,4193,8481,1,1,225
1026.1191739282162,1.6600580642521607,0,0,2640,8481,1,1,226
1026.21036210615,1.6602055887054497,0,0,1185,8481,1,1,227
1026.0850064320898,1.649218314340164,0,0,100,8481,1,1,228
1026.2656186836005,1.6493648754969188,0,0,0,8481,1,1,229
1026.056464621164,1.6491005831730727,0,0,0,8481,1,1,230
1026.12971595969,1.649218314340164,0,0,0,8481,1,1,231
1026.056464621164,1.6491005831730727,0,0,0,8481,1,1,232
1026.1265572669145,1.639622956105157,0,0,0,8481,1,1,233
1026.2656186836005,1.6397400226004766,0,0,0,8481,1,1,234
1026.1191739282162,1.6312075900043728,0,0,0,8481,1,1,235
1026.12971595969,1.6312075900043728,0,0,0,8481,1,1,236
1026.12971595969,1.6312075900043728,0,0,0,8481,1,1,237
1026.12971595969,1.6312075900043728,0,0,0,8481,1,1,238
1026.1656481459534,1.631352550601293,0,0,0,8481,1,1,239
1026.0850064320898,1.639594316699945,0,0,0,8481,1,1,240
1026.15826472507,1.6397113770605083,0,0,0,8481,1,1,241
1026.1477214815538,1.6397113770605083,0,0,0,8481,1,1,242
1026.1477214815538,1.6397113770605083,0,0,0,8481,1,1,243
1026.15826472507,1.6397113770605083,0,0,0,8481,1,1,244
1026.1818084105962,1.6600870611052807,0,0,385,8481,1,1,245
1026.1551066666018,1.6602055887054497,0,0,1280,8481,1,1,246
1026.163884023454,1.6600580642521607,0,0,2369,8481,1,1,247
1026.2476902727592,1.6493360618149864,0,0,3590,8481,1,1,248
1026.2550761746415,1.6493648754969188,0,0,4866,8481,1,1,249
1026.2191353398498,1.649218314340164,0,0,6196,8481,1,1,250
1026.1370975343907,1.649247121851331,0,0,7500,8481,1,1,251
1026.2550761746415,1.6397400226004766,0,0,8006,8481,1,1,252
1026.2191353398498,1.639594316699945,0,0,7990,8481,1,1,253
1026.2924032090882,1.5946898112955548,0,0,8006,8481,1,1,254
1026.2712304878132,1.6312360829155028,0,0,7990,8481,1,1,255
1026.2029774447485,1.6313240515867868,0,0,8006,8481,1,1,0
1026.3283540886775,1.6314690344216807,0,0,7990,8481,1,1,1
1026.3209650989184,1.631440529302081,0,0,8006,8481,1,1,2
1026.2550761746415,1.631352550601293,0,0,7990,8481,1,1,3
1026.163884023454,1.639594316699945,0,0,8006,8481,1,1,4
1026.1818084105962,1.639622956105157,0,0,7990,8481,1,1,5
1026.2836368274573,1.6398571053133486,0,0,8006,8481,1,1,6
1026.2550761746415,1.6397400226004766,0,0,7990,8481,1,1,7
1026.2836368274573,1.6494826454552518,0,0,8006,8481,1,1,8
1026.21036210615,1.6602055887054497,0,0,7990,8481,1,1,9
1026.21036210615,1.6602055887054497,0,0,8006,8481,1,1,10
1026.3283540886775,1.6494826454552518,0,0,7990,8481,1,1,11
1026.3283540886775,1.6494826454552518,0,0,8006,8481,1,1,12
1026.3103324010583,1.6493648754969188,0,0,7990,8481,1,1,13
1026.2550761746415,1.6493648754969188,0,0,8006,8481,1,1,14
1026.2476902727592,1.6493360618149864,0,0,7990,8481,1,1,15
1026.2476902727592,1.6397113770605083,0,0,8006,8481,1,1,16
1026.2550761746415,1.6397400226004766,0,0,7990,8481,1,1,17
1026.2550761746415,1.6397400226004766,0,0,7771,8481,1,1,18
1026.21036210615,1.631352550601293,0,0,6351,8481,1,1,19
1026.2029774447485,1.6313240515867868,0,0,4780,8481,1,1,20
1026.2656186836005,1.631352550601293,0,0,3225,8481,1,1,21
1026.2550761746415,1.631352550601293,0,0,1773,8481,1,1,22
1026.2550761746415,1.6397400226004766,0,0,453,8481,1,1,23
1026.2476902727592,1.6397113770605083,0,0,0,8481,1,1,24
1026.217743742431,1.6397686607821138,0,0,0,8481,1,1,25
1026.2029774447485,1.6397113770605083,0,0,0,8481,1,1,26
1026.192434660617,1.6397113770605083,0,0,0,8481,1,1,27
1026.1656481459534,1.6397400226004766,0,0,0,8481,1,1,28
1026.2029774447485,1.660176585641006,0,0,0,8481,1,1,29
1026.192434660617,1.660176585641006,0,0,0,8481,1,1,30
1026.192434660617,1.660176585641006,0,0,0,8481,1,1,31
1026.2389196745403,1.6494826454552518,0,0,0,8481,1,1,32
1026.2550761746415,1.6493648754969188,0,0,0,8481,1,1,33
1026.2029774447485,1.6493360618149864,0,0,0,8481,1,1,34
1026.1370975343907,1.649247121851331,0,0,0,8481,1,1,35
1026.2656186836005,1.5947176703147485,0,0,0,8481,1,1,36
1026.21036210615,1.5947176703147485,0,0,0,8481,1,1,37
1026.2941805485718,1.5948315382868246,0,0,0,8481,1,1,38
1026.21036210615,1.631352550601293,0,0,0,8481,1,1,39
1026.2476902727592,1.6313240515867868,0,0,201,8481,1,1,40
1026.21036210615,1.631352550601293,0,0,1009,8481,1,1,41
1026.1265572669145,1.6312360829155028,0,0,2059,8481,1,1,42
1026.2550761746415,1.631352550601293,0,0,3241,8481,1,1,43
1026.2029774447485,1.6397113770605083,0,0,4520,8481,1,1,44
1026.2029774447485,1.6397113770605083,0,0,5819,8481,1,1,45
1026.1818084105962,1.639622956105157,0,0,7156,8481,1,1,46
1026.2762490783794,1.639828453636898,0,0,7977,8481,1,1,47
1026.1818084105962,1.639622956105157,0,0,8006,8481,1,1,48
1026.2476902727592,1.660176585641006,0,0,7990,8481,1,1,49
1026.3283540886775,1.660324132725582,0,0,8006,8481,1,1,50
1026.1998210861154,1.6602055887054497,0,0,7990,8481,1,1,51
1026.2476902727592,1.6493360618149864,0,0,8006,8481,1,1,52
1026.3445046364538,1.6493648754969188,0,0,7990,8481,1,1,53
1026.2445356138855,1.6493648754969188,0,0,8006,8481,1,1,54
1026.2476902727592,1.6493360618149864,0,0,7990,8481,1,1,55
1026.2191353398498,1.639594316699945,0,0,8006,8481,1,1,56
1026.3103324010583,1.5947176703147485,0,0,7990,8481,1,1,57
1026.3103324010583,1.5947176703147485,0,0,8006,8481,1,1,58
1026.3283540886775,1.6314690344216807,0,0,7990,8481,1,1,59
1026.2924032090882,1.6313240515867868,0,0,8006,8481,1,1,60
1026.2836368274573,1.6314690344216807,0,0,7990,8481,1,1,61
1026.2656186836005,1.631352550601293,0,0,8006,8481,1,1,62
1026.2656186836005,1.631352550601293,0,0,7990,8481,1,1,63
1026.3103324010583,1.6397400226004766,0,0,8006,8481,1,1,64
1026.2997903514142,1.6397400226004766,0,0,7990,8481,1,1,65
1026.2656186836005,1.6397400226004766,0,0,8006,8481,1,1,66
1026.1998210861154,1.6397400226004766,0,0,7990,8481,1,1,67
1026.21036210615,1.6397400226004766,0,0,8006,8481,1,1,68
1026.2656186836005,1.6493648754969188,0,0,7881,8481,1,1,69
1026.1477214815538,1.660176585641006,0,0,6652,8481,1,1,70
1026.2445356138855,1.6602055887054497,0,0,5075,8481,1,1,71
1026.2910215506229,1.6495114579067935,0,0,3548,8481,1,1,72
1026.2550761746415,1.6493648754969188,0,0,2088,8481,1,1,73
1026.2656186836005,1.6493648754969188,0,0,749,8481,1,1,74
1026.1818084105962,1.604498042222124,0,0,7,8481,1,1,75
1026.2550761746415,1.604612600853943,0,0,0,8481,1,1,76
1026.1370975343907,1.5946038181149398,0,0,0,8481,1,1,77
1026.21036210615,1.5947176703147485,0,0,0,8481,1,1,78
1026.1656481459534,1.5860921318289276,0,0,0,8481,1,1,79
1026.21036210615,1.631352550601293,0,0,0,8481,1,1,80
1026.2209050744627,1.631352550601293,0,0,0,8481,1,1,81
1026.2315331661805,1.631440529302081,0,0,0,8481,1,1,82
1026.2029774447485,1.6313240515867868,0,0,0,8481,1,1,83
1026.2445356138855,1.6397400226004766,0,0,0,8481,1,1,84
1026.2657055414854,1.639828453636898,0,0,0,8481,1,1,85
1026.21036210615,1.6397400226004766,0,0,0,8481,1,1,86
1026.1998210861154,1.6397400226004766,0,0,0,8481,1,1,87
1026.27309505476,1.6494826454552518,0,0,0,8481,1,1,88
1026.2029774447485,1.660176585641006,0,0,0,8481,1,1,89
1026.1730285419767,1.6602345843197233,0,0,16,8481,1,1,90
1026.2315331661805,1.6602951234480663,0,0,533,8481,1,1,91
1026.21036210615,1.6493648754969188,0,0,1463,8481,1,1,92
1026.2656186836005,1.604612600853943,0,0,2566,8481,1,1,93
1026.2656186836005,1.6493648754969188,0,0,3788,8481,1,1,94
1026.21036210615,1.6493648754969188,0,0,5059,8481,1,1,95
1026.2550761746415,1.6397400226004766,0,0,6388,8481,1,1,96
1026.2550761746415,1.6397400226004766,0,0,7654,8481,1,1,97
1026.3730714581861,1.5948315382868246,0,0,8006,8481,1,1,98
1026.2656186836005,1.5860921318289276,0,0,7990,8481,1,1,99
1026.2656186836005,1.631352550601293,0,0,8006,8481,1,1,100
1026.2476902727592,1.6313240515867868,0,0,7990,8481,1,1,101
1026.3103324010583,1.631352550601293,0,0,8006,8481,1,1,102
1026.2550761746415,1.631352550601293,0,0,7990,8481,1,1,103
1026.21036210615,1.6397400226004766,0,0,8006,8481,1,1,104
1026.3209650989184,1.639828453636898,0,0,7990,8481,1,1,105
1026.3103324010583,1.6397400226004766,0,0,8006,8481,1,1,106
1026.27309505476,1.6398571053133486,0,0,7990,8481,1,1,107
1026.1998210861154,1.6493648754969188,0,0,8006,8481,1,1,108
1026.2445356138855,1.6493648754969188,0,0,7990,8481,1,1,109
1026.3283540886775,1.660324132725582,0,0,8006,8481,1,1,110
1026.2997903514142,1.6602055887054497,0,0,7990,8481,1,1,111
1026.2550761746415,1.6493648754969188,0,0,8006,8481,1,1,112
1026.3103324010583,1.6493648754969188,0,0,7990,8481,1,1,113
1026.2476902727592,1.6045845689746463,0,0,8006,8481,1,1,114
1026.3283540886775,1.6494826454552518,0,0,7990,8481,1,1,115
1026.2476902727592,1.6397113770605083,0,0,8006,8481,1,1,116
1026.2892502498976,1.6397400226004766,0,0,7990,8481,1,1,117
1026.2924032090882,1.6397113770605083,0,0,8006,8481,1,1,118
1026.2445356138855,1.5860921318289276,0,0,7964,8481,1,1,119
1026.3103324010583,1.631352550601293,0,0,6909,8481,1,1,120
1026.2941805485718,1.6314690344216807,0,0,5251,8481,1,1,121
1026.2836368274573,1.6314690344216807,0,0,3627,8481,1,1,122
1026.3122013542727,1.6315855343799086,0,0,2058,8481,1,1,123
1026.3015635074594,1.6398857496301056,0,0,612,8481,1,1,124
1026.2029774447485,1.6397113770605083,0,0,0,8481,1,1,125
1026.2389196745403,1.6398571053133486,0,0,0,8481,1,1,126
1026.21036210615,1.6397400226004766,0,0,0,8481,1,1,127
1026.2463031572477,1.6495114579067935,0,0,0,8481,1,1,128
1026.2836368274573,1.6494826454552518,0,0,0,8481,1,1,129
1026.1656481459534,1.6602055887054497,0,0,0,8481,1,1,130
1026.2494638550802,1.6494826454552518,0,0,0,8481,1,1,131
1026.2836368274573,1.6494826454552518,0,0,0,8481,1,1,132
1026.2836368274573,1.6047271753558923,0,0,0,8481,1,1,133
1026.2445356138855,1.6493648754969188,0,0,0,8481,1,1,134
1026.21036210615,1.6493648754969188,0,0,0,8481,1,1,135
1026.2836368274573,1.6398571053133486,0,0,0,8481,1,1,136
1026.27309505476,1.6398571053133486,0,0,0,8481,1,1,137
1026.1998210861154,1.6397400226004766,0,0,0,8481,1,1,138
1026.2029774447485,1.5860644234941128,0,0,0,8481,1,1,139
1026.2762490783794,1.631440529302081,0,0,0,8481,1,1,140
1026.2029774447485,1.6313240515867868,0,0,0,8481,1,1,141
1026.21036210615,1.631352550601293,0,0,271,8481,1,1,142
1026.21036210615,1.631352550601293,0,0,1159,8481,1,1,143
1026.3283540886775,1.6314690344216807,0,0,2279,8481,1,1,144
1026.3283540886775,1.6398571053133486,0,0,3520,8481,1,1,145
1026.2550761746415,1.6397400226004766,0,0,4847,8481,1,1,146
1026.2445356138855,1.6397400226004766,0,0,6192,8481,1,1,147
1026.2997903514142,1.6493648754969188,0,0,7551,8481,1,1,148
1026.2550761746415,1.6602055887054497,0,0,7990,8481,1,1,149
1026.2550761746415,1.6602055887054497,0,0,8006,8481,1,1,150
1026.2445356138855,1.6602055887054497,0,0,7990,8481,1,1,151
1026.3209650989184,1.6494538256008175,0,0,8006,8481,1,1,152
1026.2656186836005,1.604612600853943,0,0,7990,8481,1,1,153
1026.2624590511437,1.6493936817773287,0,0,8006,8481,1,1,154
1026.2656186836005,1.6493648754969188,0,0,7990,8481,1,1,155
1026.3283540886775,1.6398571053133486,0,0,8006,8481,1,1,156
1026.2550761746415,1.6397400226004766,0,0,7990,8481,1,1,157
1026.2656186836005,1.6397400226004766,0,0,8006,8481,1,1,158
1026.3283540886775,1.6314690344216807,0,0,7990,8481,1,1,159
1026.2997903514142,1.5860921318289276,0,0,8006,8481,1,1,160
1026.2582345456535,1.6313240515867868,0,0,7990,8481,1,1,161
1026.355046226822,1.631352550601293,0,0,8006,8481,1,1,162
1026.2550761746415,1.631352550601293,0,0,7990,8481,1,1,163
1026.3029470226002,1.6397113770605083,0,0,8006,8481,1,1,164
1026.2656186836005,1.6397400226004766,0,0,7990,8481,1,1,165
1026.226519395075,1.639622956105157,0,0,8006,8481,1,1,166
1026.192434660617,1.6397113770605083,0,0,7990,8481,1,1,167
1026.2550761746415,1.6397400226004766,0,0,8006,8481,1,1,168
1026.2550761746415,1.6602055887054497,0,0,7990,8481,1,1,169
1026.2550761746415,1.6602055887054497,0,0,8006,8481,1,1,170
1026.21036210615,1.6602055887054497,0,0,7588,8481,1,1,171
1026.2476902727592,1.6493360618149864,0,0,6041,8481,1,1,172
1026.1818084105962,1.604498042222124,0,0,4380,8481,1,1,173
1026.2550761746415,1.6493648754969188,0,0,2780,8481,1,1,174
1026.12971595969,1.649218314340164,0,0,1258,8481,1,1,175
1026.21036210615,1.6493648754969188,0,0,108,8481,1,1,176
1026.21036210615,1.6397400226004766,0,0,0,8481,1,1,177
1026.2656186836005,1.6397400226004766,0,0,0,8481,1,1,178
1026.21036210615,1.631352550601293,0,0,0,8481,1,1,179
1026.2656186836005,1.5860921318289276,0,0,0,8481,1,1,180
1026.1476397500057,1.6312360829155028,0,0,0,8481,1,1,181
1026.21036210615,1.631352550601293,0,0,0,8481,1,1,182
1026.2389196745403,1.6314690344216807,0,0,0,8481,1,1,183
1026.2029774447485,1.6397113770605083,0,0,0,8481,1,1,184
1026.1265572669145,1.639622956105157,0,0,0,8481,1,1,185
1026.192434660617,1.6397113770605083,0,0,0,8481,1,1,186
1026.1818084105962,1.639622956105157,0,0,0,8481,1,1,187
1026.21036210615,1.6397400226004766,0,0,0,8481,1,1,188
1026.15826472507,1.6493360618149864,0,0,0,8481,1,1,189
1026.1998210861154,1.6602055887054497,0,0,0,8481,1,1,190
1026.12971595969,1.6600580642521607,0,0,0,8481,1,1,191
1026.1191739282162,1.6044700163461614,0,0,0,8481,1,1,192
1026.2029774447485,1.6493360618149864,0,0,0,8481,1,1,193
1026.21036210615,1.6493648754969188,0,0,204,8481,1,1,194
1026.2550761746415,1.6493648754969188,0,0,1053,8481,1,1,195
1026.2476902727592,1.6493360618149864,0,0,2160,8481,1,1,196
1026.2550761746415,1.6397400226004766,0,0,3399,8481,1,1,197
1026.2476902727592,1.6397113770605083,0,0,4727,8481,1,1,198
1026.1370975343907,1.6312360829155028,0,0,6071,8481,1,1,199
1026.2550761746415,1.631352550601293,0,0,7449,8481,1,1,200
1026.2550761746415,1.5860921318289276,0,0,7990,8481,1,1,201
1026.2550761746415,1.631352550601293,0,0,8006,8481,1,1,202
1026.2445356138855,1.631352550601293,0,0,7990,8481,1,1,203
1026.2550761746415,1.6397400226004766,0,0,8006,8481,1,1,204
1026.2941805485718,1.6398571053133486,0,0,7990,8481,1,1,205
1026.2836368274573,1.6398571053133486,0,0,8006,8481,1,1,206
1026.226519395075,1.639622956105157,0,0,7990,8481,1,1,207
1026.2550761746415,1.6397400226004766,0,0,8006,8481,1,1,208
1026.2476902727592,1.660176585641006,0,0,7990,8481,1,1,209
1026.192434660617,1.660176585641006,0,0,8006,8481,1,1,210
1026.2029774447485,1.6493360618149864,0,0,7990,8481,1,1,211
1026.2550761746415,1.6493648754969188,0,0,8006,8481,1,1,212
1026.3445046364538,1.6493648754969188,0,0,7990,8481,1,1,213
1026.1744255956146,1.649218314340164,0,0,8006,8481,1,1,214
1026.2445356138855,1.6493648754969188,0,0,7990,8481,1,1,215
1026.2445356138855,1.6397400226004766,0,0,8006,8481,1,1,216
1026.3103324010583,1.6397400226004766,0,0,7990,8481,1,1,217
1026.2191353398498,1.639594316699945,0,0,8006,8481,1,1,218
1026.21036210615,1.631352550601293,0,0,7990,8481,1,1,219
1026.2656186836005,1.5860921318289276,0,0,8006,8481,1,1,220
1026.2656186836005,1.5860921318289276,0,0,7990,8481,1,1,221
1026.1818084105962,1.6312360829155028,0,0,8006,8481,1,1,222
1026.208594226963,1.6312075900043728,0,0,7394,8481,1,1,223
1026.21036210615,1.631352550601293,0,0,5814,8481,1,1,224
1026.2029774447485,1.6397113770605083,0,0,4194,8481,1,1,225
1026.2029774447485,1.6397113770605083,0,0,2649,8481,1,1,226
1026.2550761746415,1.6397400226004766,0,0,1195,8481,1,1,227
1026.2550761746415,1.6493648754969188,0,0,102,8481,1,1,228
1026.21036210615,1.6602055887054497,0,0,0,8481,1,1,229
1026.1818084105962,1.6600870611052807,0,0,0,8481,1,1,230
1026.1998210861154,1.615753602213251,0,0,0,8481,1,1,231
1026.192434660617,1.6493360618149864,0,0,0,8481,1,1,232
1026.226519395075,1.649247121851331,0,0,0,8481,1,1,233
1026.1818084105962,1.649247121851331,0,0,0,8481,1,1,234
1026.21036210615,1.6493648754969188,0,0,0,8481,1,1,235
1026.21036210615,1.6397400226004766,0,0,0,8481,1,1,236
1026.2656186836005,1.5947176703147485,0,0,0,8481,1,1,237
1026.2550761746415,1.6397400226004766,0,0,0,8481,1,1,238
1026.15826472507,1.6313240515867868,0,0,0,8481,1,1,239
1026.1656481459534,1.5860921318289276,0,0,0,8481,1,1,240
1026.2550761746415,1.5860921318289276,0,0,0,8481,1,1,241
1026.192434660617,1.6313240515867868,0,0,0,8481,1,1,242
1026.1265572669145,1.6312360829155028,0,0,0,8481,1,1,243
1026.2550761746415,1.6397400226004766,0,0,0,8481,1,1,244
1026.2029774447485,1.6397113770605083,0,0,413,8481,1,1,245
1026.213522177064,1.6397113770605083,0,0,1310,8481,1,1,246
1026.2389196745403,1.6398571053133486,0,0,2391,8481,1,1,247
1026.2209050744627,1.6493648754969188,0,0,3593,8481,1,1,248
1026.2209050744627,1.6602055887054497,0,0,4840,8481,1,1,249
1026.21036210615,1.6602055887054497,0,0,6136,8481,1,1,250
1026.2550761746415,1.615753602213251,0,0,7417,8481,1,1,251
1026.2550761746415,1.6493648754969188,0,0,8006,8481,1,1,252
1026.226519395075,1.649247121851331,0,0,7990,8481,1,1,253
1026.21036210615,1.6493648754969188,0,0,8006,8481,1,1,254
1026.215980046051,1.604498042222124,0,0,7990,8481,1,1,255
1026.2550761746415,1.5947176703147485,0,0,8006,8481,1,1,0
1026.2997903514142,1.5947176703147485,0,0,7990,8481,1,1,1
1026.237060692087,1.5946038181149398,0,0,8006,8481,1,1,2
1026.226519395075,1.6312360829155028,0,0,7990,8481,1,1,3
1026.2656186836005,1.631352550601293,0,0,8006,8481,1,1,4
1026.2550761746415,1.5860921318289276,0,0,7990,8481,1,1,5
1026.2550761746415,1.631352550601293,0,0,8006,8481,1,1,6
1026.2550761746415,1.631352550601293,0,0,7990,8481,1,1,7
1026.226519395075,1.639622956105157,0,0,8006,8481,1,1,8
1026.2476902727592,1.6397113770605083,0,0,7990,8481,1,1,9
1026.2656186836005,1.6397400226004766,0,0,8006,8481,1,1,10
1026.2836368274573,1.6398571053133486,0,0,7990,8481,1,1,11
1026.21036210615,1.6397400226004766,0,0,8006,8481,1,1,12
1026.2656186836005,1.6602055887054497,0,0,7990,8481,1,1,13
1026.2445356138855,1.6602055887054497,0,0,8006,8481,1,1,14
1026.226519395075,1.649247121851331,0,0,7990,8481,1,1,15
1026.2550761746415,1.6493648754969188,0,0,8006,8481,1,1,16
1026.2997903514142,1.6493648754969188,0,0,7990,8481,1,1,17
1026.21036210615,1.6493648754969188,0,0,7348,8481,1,1,18
1026.12971595969,1.649218314340164,0,0,5752,8481,1,1,19
1026.2191353398498,1.639594316699945,0,0,4180,8481,1,1,20
1026.2550761746415,1.5947176703147485,0,0,2664,8481,1,1,21
1026.21036210615,1.6397400226004766,0,0,1274,8481,1,1,22
1026.2029774447485,1.6313240515867868,0,0,158,8481,1,1,23
1026.21036210615,1.631352550601293,0,0,0,8481,1,1,24
1026.1265572669145,1.5859788954350065,0,0,0,8481,1,1,25
1026.21036210615,1.631352550601293,0,0,0,8481,1,1,26
1026.228377442493,1.6314690344216807,0,0,0,8481,1,1,27
1026.2029774447485,1.6397113770605083,0,0,0,8481,1,1,28
1026.192434660617,1.6397113770605083,0,0,0,8481,1,1,29
1026.21036210615,1.6397400226004766,0,0,0,8481,1,1,30
1026.1998210861154,1.6397400226004766,0,0,0,8481,1,1,31
1026.2494638550802,1.6494826454552518,0,0,0,8481,1,1,32
1026.15826472507,1.6493360618149864,0,0,0,8481,1,1,33
1026.21036210615,1.6602055887054497,0,0,0,8481,1,1,34
1026.21036210615,1.6493648754969188,0,0,0,8481,1,1,35
1026.21036210615,1.6493648754969188,0,0,0,8481,1,1,36
1026.2550761746415,1.6493648754969188,0,0,0,8481,1,1,37
1026.2315331661805,1.6494538256008175,0,0,0,8481,1,1,38
1026.3209650989184,1.6494538256008175,0,0,90,8481,1,1,39
1026.1744255956146,1.5945759650620597,0,0,743,8481,1,1,40
1026.2209050744627,1.5947176703147485,0,0,1669,8481,1,1,41
1026.2476902727592,1.5946898112955548,0,0,2744,8481,1,1,42
1026.12971595969,1.6312075900043728,0,0,3890,8481,1,1,43
1026.1744255956146,1.6312075900043728,0,0,5098,8481,1,1,44
1026.12971595969,1.585951193034235,0,0,6313,8481,1,1,45
1026.1818084105962,1.6312360829155028,0,0,7555,8481,1,1,46
1026.1818084105962,1.6312360829155028,0,0,7990,8481,1,1,47
1026.2550761746415,1.631352550601293,0,0,8006,8481,1,1,48
1026.21036210615,1.6397400226004766,0,0,7990,8481,1,1,49
1026.1818084105962,1.639622956105157,0,0,8006,8481,1,1,50
1026.2582345456535,1.6397113770605083,0,0,7990,8481,1,1,51
1026.21036210615,1.6397400226004766,0,0,8006,8481,1,1,52
1026.2550761746415,1.6602055887054497,0,0,7990,8481,1,1,53
1026.2550761746415,1.6602055887054497,0,0,8006,8481,1,1,54
1026.163884023454,1.6600580642521607,0,0,7990,8481,1,1,55
1026.21036210615,1.6493648754969188,0,0,8006,8481,1,1,56
1026.2191353398498,1.649218314340164,0,0,7990,8481,1,1,57
1026.163884023454,1.6044700163461614,0,0,8006,8481,1,1,58
1026.237060692087,1.604498042222124,0,0,7990,8481,1,1,59
1026.226519395075,1.604498042222124,0,0,8006,8481,1,1,60
1026.21036210615,1.6397400226004766,0,0,7990,8481,1,1,61
1026.1670397565297,1.5945481048554369,0,0,8006,8481,1,1,62
1026.2550761746415,1.631352550601293,0,0,7990,8481,1,1,63
1026.3388973504052,1.6314690344216807,0,0,8006,8481,1,1,64
1026.2550761746415,1.631352550601293,0,0,7990,8481,1,1,65
1026.1849691157445,1.585951193034235,0,0,8006,8481,1,1,66
1026.171268602366,1.6312360829155028,0,0,7990,8481,1,1,67
1026.1818084105962,1.6312360829155028,0,0,7725,8481,1,1,68
1026.2476902727592,1.6397113770605083,0,0,6248,8481,1,1,69
1026.2494638550802,1.6398571053133486,0,0,4639,8481,1,1,70
1026.2476902727592,1.6397113770605083,0,0,3051,8481,1,1,71
1026.2315331661805,1.639828453636898,0,0,1562,8481,1,1,72
1026.1265572669145,1.649247121851331,0,0,271,8481,1,1,73
1026.1265572669145,1.6600870611052807,0,0,0,8481,1,1,74
1026.2445356138855,1.6602055887054497,0,0,0,8481,1,1,75
1026.2476902727592,1.6493360618149864,0,0,0,8481,1,1,76
1026.2029774447485,1.6493360618149864,0,0,0,8481,1,1,77
1026.1370975343907,1.604498042222124,0,0,0,8481,1,1,78
1026.12971595969,1.649218314340164,0,0,0,8481,1,1,79
1026.192434660617,1.6493360618149864,0,0,0,8481,1,1,80
1026.2389196745403,1.6398571053133486,0,0,0,8481,1,1,81
1026.2029774447485,1.6397113770605083,0,0,0,8481,1,1,82
1026.1370975343907,1.5859788954350065,0,0,0,8481,1,1,83
1026.12971595969,1.6312075900043728,0,0,0,8481,1,1,84
1026.1191739282162,1.6312075900043728,0,0,0,8481,1,1,85
1026.1370975343907,1.5859788954350065,0,0,0,8481,1,1,86
1026.1656481459534,1.631352550601293,0,0,0,8481,1,1,87
1026.1998210861154,1.631352550601293,0,0,0,8481,1,1,88
1026.1656481459534,1.6397400226004766,0,0,0,8481,1,1,89
1026.2029774447485,1.6397113770605083,0,0,10,8481,1,1,90
1026.163884023454,1.639594316699945,0,0,502,8481,1,1,91
1026.1656481459534,1.6493648754969188,0,0,1420,8481,1,1,92
1026.1476397500057,1.649247121851331,0,0,2512,8481,1,1,93
1026.1998210861154,1.6602055887054497,0,0,3725,8481,1,1,94
1026.1998210861154,1.6602055887054497,0,0,4992,8481,1,1,95
1026.2550761746415,1.6493648754969188,0,0,6315,8481,1,1,96
1026.2656186836005,1.604612600853943,0,0,7596,8481,1,1,97
1026.2582345456535,1.6493360618149864,0,0,8006,8481,1,1,98
1026.226519395075,1.649247121851331,0,0,7990,8481,1,1,99
1026.2550761746415,1.6493648754969188,0,0,8006,8481,1,1,100
1026.2550761746415,1.6397400226004766,0,0,7990,8481,1,1,101
1026.226519395075,1.639622956105157,0,0,8006,8481,1,1,102
1026.2476902727592,1.6313240515867868,0,0,7990,8481,1,1,103
1026.2550761746415,1.631352550601293,0,0,8006,8481,1,1,104
1026.21036210615,1.631352550601293,0,0,7990,8481,1,1,105
1026.226519395075,1.6312360829155028,0,0,8006,8481,1,1,106
1026.192434660617,1.5860644234941128,0,0,7990,8481,1,1,107
1026.2476902727592,1.5860644234941128,0,0,8006,8481,1,1,108
1026.1818084105962,1.639622956105157,0,0,7990,8481,1,1,109
1026.2476902727592,1.6397113770605083,0,0,8006,8481,1,1,110
1026.2550761746415,1.6397400226004766,0,0,7990,8481,1,1,111
1026.3283540886775,1.6494826454552518,0,0,8006,8481,1,1,112
1026.2656186836005,1.6493648754969188,0,0,7990,8481,1,1,113
1026.2550761746415,1.6602055887054497,0,0,8006,8481,1,1,114
1026.2445356138855,1.6602055887054497,0,0,7990,8481,1,1,115
1026.2550761746415,1.6493648754969188,0,0,8006,8481,1,1,116
1026.21036210615,1.604612600853943,0,0,7990,8481,1,1,117
1026.2550761746415,1.604612600853943,0,0,8006,8481,1,1,118
1026.2656186836005,1.6493648754969188,0,0,7990,8481,1,1,119
1026.2476902727592,1.6493360618149864,0,0,7763,8481,1,1,120
1026.2476902727592,1.6397113770605083,0,0,6323,8481,1,1,121
1026.2656186836005,1.6397400226004766,0,0,4738,8481,1,1,122
1026.3283540886775,1.5862053839098063,0,0,3180,8481,1,1,123
1026.2476902727592,1.6313240515867868,0,0,1728,8481,1,1,124
1026.1998210861154,1.631352550601293,0,0,416,8481,1,1,125
1026.2550761746415,1.6397400226004766,0,0,0,8481,1,1,126
1026.1656481459534,1.631352550601293,0,0,0,8481,1,1,127
1026.2209050744627,1.5947176703147485,0,0,0,8481,1,1,128
1026.2029774447485,1.6397113770605083,0,0,0,8481,1,1,129
1026.21036210615,1.6397400226004766,0,0,0,8481,1,1,130
1026.1998210861154,1.6397400226004766,0,0,0,8481,1,1,131
1026.1656481459534,1.6397400226004766,0,0,0,8481,1,1,132
1026.2209050744627,1.604612600853943,0,0,0,8481,1,1,133
1026.21036210615,1.6602055887054497,0,0,0,8481,1,1,134
1026.27309505476,1.660324132725582,0,0,0,8481,1,1,135
1026.192434660617,1.6493360618149864,0,0,0,8481,1,1,136
1026.3388973504052,1.6494826454552518,0,0,0,8481,1,1,137
1026.1998210861154,1.6493648754969188,0,0,0,8481,1,1,138
1026.21036210615,1.6493648754969188,0,0,0,8481,1,1,139
1026.1656481459534,1.6397400226004766,0,0,0,8481,1,1,140
1026.2029774447485,1.6397113770605083,0,0,0,8481,1,1,141
1026.21036210615,1.6397400226004766,0,0,289,8481,1,1,142
1026.1998210861154,1.631352550601293,0,0,1115,8481,1,1,143
1026.2476902727592,1.5860644234941128,0,0,2144,8481,1,1,144
1026.21036210615,1.631352550601293,0,0,3284,8481,1,1,145
1026.317812775291,1.6314690344216807,0,0,4509,8481,1,1,146
1026.2762490783794,1.631440529302081,0,0,5757,8481,1,1,147
1026.21036210615,1.5860921318289276,0,0,7051,8481,1,1,148
1026.2656186836005,1.5947176703147485,0,0,7953,8481,1,1,149
1026.2762490783794,1.5948036732996378,0,0,8006,8481,1,1,150
1026.2550761746415,1.5947176703147485,0,0,7990,8481,1,1,151
1026.317812775291,1.6398571053133486,0,0,8006,8481,1,1,152
1026.2924032090882,1.6157253757055408,0,0,7990,8481,1,1,153
1026.27309505476,1.660324132725582,0,0,8006,8481,1,1,154
1026.2836368274573,1.6494826454552518,0,0,7990,8481,1,1,155
1026.2476902727592,1.6045845689746463,0,0,8006,8481,1,1,156
1026.3388973504052,1.6494826454552518,0,0,7990,8481,1,1,157
1026.215980046051,1.649247121851331,0,0,8006,8481,1,1,158
1026.2550761746415,1.6493648754969188,0,0,7990,8481,1,1,159
1026.2550761746415,1.6397400226004766,0,0,8006,8481,1,1,160
1026.2550761746415,1.6397400226004766,0,0,7990,8481,1,1,161
1026.355046226822,1.6397400226004766,0,0,8006,8481,1,1,162
1026.317812775291,1.6314690344216807,0,0,7990,8481,1,1,163
1026.2997903514142,1.5860921318289276,0,0,8006,8481,1,1,164
1026.2624590511437,1.631381042295107,0,0,7990,8481,1,1,165
1026.2892502498976,1.631352550601293,0,0,8006,8481,1,1,166
1026.1998210861154,1.631352550601293,0,0,7990,8481,1,1,167
1026.2296784006298,1.585951193034235,0,0,8006,8481,1,1,168
1026.1923501668903,1.5946038181149398,0,0,7990,8481,1,1,169
1026.3283540886775,1.5948315382868246,0,0,7995,8481,1,1,170
1026.2729997959916,1.6397686607821138,0,0,7054,8481,1,1,171
1026.2476902727592,1.6397113770605083,0,0,5519,8481,1,1,172
1026.2550761746415,1.604612600853943,0,0,3980,8481,1,1,173
1026.1998210861154,1.6602055887054497,0,0,2528,8481,1,1,174
1026.192434660617,1.660176585641006,0,0,1174,8481,1,1,175
1026.1370975343907,1.649247121851331,0,0,125,8481,1,1,176
1026.2550761746415,1.6493648754969188,0,0,0,8481,1,1,177
1026.1656481459534,1.6493648754969188,0,0,0,8481,1,1,178
1026.1656481459534,1.6493648754969188,0,0,0,8481,1,1,179
1026.1656481459534,1.6397400226004766,0,0,0,8481,1,1,180
1026.2550761746415,1.6397400226004766,0,0,0,8481,1,1,181
1026.2624590511437,1.6397686607821138,0,0,0,8481,1,1,182
1026.2029774447485,1.6313240515867868,0,0,0,8481,1,1,183
1026.2550761746415,1.5860921318289276,0,0,0,8481,1,1,184
1026.192434660617,1.6313240515867868,0,0,0,8481,1,1,185
1026.2209050744627,1.631352550601293,0,0,0,8481,1,1,186
1026.1265572669145,1.6312360829155028,0,0,0,8481,1,1,187
1026.21036210615,1.6397400226004766,0,0,0,8481,1,1,188
1026.2656186836005,1.5947176703147485,0,0,0,8481,1,1,189
1026.1370975343907,1.5946038181149398,0,0,0,8481,1,1,190
1026.317812775291,1.6398571053133486,0,0,0,8481,1,1,191
1026.21036210615,1.6397400226004766,0,0,228,8481,1,1,192
1026.2762490783794,1.6602951234480663,0,0,983,8481,1,1,193
1026.21036210615,1.6602055887054497,0,0,1945,8481,1,1,194
1026.2029774447485,1.6157253757055408,0,0,3027,8481,1,1,195
1026.2550761746415,1.6493648754969188,0,0,4205,8481,1,1,196
1026.2656186836005,1.6493648754969188,0,0,5414,8481,1,1,197
1026.163884023454,1.649218314340164,0,0,6678,8481,1,1,198
1026.1998210861154,1.6493648754969188,0,0,7802,8481,1,1,199
1026.226519395075,1.639622956105157,0,0,8006,8481,1,1,200
1026.3103324010583,1.6397400226004766,0,0,7990,8481,1,1,201
1026.2712304878132,1.639622956105157,0,0,8006,8481,1,1,202
1026.2371479479734,1.6313240515867868,0,0,7990,8481,1,1,203
1026.2656186836005,1.631352550601293,0,0,8006,8481,1,1,204
1026.3283540886775,1.6314690344216807,0,0,7990,8481,1,1,205
1026.2997903514142,1.631352550601293,0,0,8006,8481,1,1,206
1026.3283540886775,1.6314690344216807,0,0,7990,8481,1,1,207
1026.2476902727592,1.6397113770605083,0,0,8006,8481,1,1,208
1026.2550761746415,1.6397400226004766,0,0,7990,8481,1,1,209
1026.2550761746415,1.5947176703147485,0,0,8006,8481,1,1,210
1026.2550761746415,1.6397400226004766,0,0,7990,8481,1,1,211
1026.2550761746415,1.6397400226004766,0,0,8006,8481,1,1,212
1026.226519395075,1.649247121851331,0,0,7990,8481,1,1,213
1026.2657055414854,1.6602951234480663,0,0,8006,8481,1,1,214
1026.2656186836005,1.604612600853943,0,0,7990,8481,1,1,215
1026.2550761746415,1.6493648754969188,0,0,8006,8481,1,1,216
1026.3103324010583,1.6493648754969188,0,0,7990,8481,1,1,217
1026.1818084105962,1.649247121851331,0,0,8006,8481,1,1,218
1026.2550761746415,1.6493648754969188,0,0,7990,8481,1,1,219
1026.3836142605664,1.6494826454552518,0,0,8006,8481,1,1,220
1026.2029774447485,1.6397113770605083,0,0,7834,8481,1,1,221
1026.2582345456535,1.6397113770605083,0,0,6516,8481,1,1,222
1026.2836368274573,1.6314690344216807,0,0,4915,8481,1,1,223
1026.2191353398498,1.6312075900043728,0,0,3368,8481,1,1,224
1026.2550761746415,1.631352550601293,0,0,1893,8481,1,1,225
1026.21036210615,1.631352550601293,0,0,553,8481,1,1,226
1026.1370975343907,1.6312360829155028,0,0,0,8481,1,1,227
1026.2836368274573,1.6314690344216807,0,0,0,8481,1,1,228
1026.2941805485718,1.6398571053133486,0,0,0,8481,1,1,229
1026.21036210615,1.5947176703147485,0,0,0,8481,1,1,230
1026.2371479479734,1.6397113770605083,0,0,0,8481,1,1,231
1026.15826472507,1.6397113770605083,0,0,0,8481,1,1,232
1026.2550761746415,1.6602055887054497,0,0,0,8481,1,1,233
1026.2315331661805,1.6602951234480663,0,0,0,8481,1,1,234
1026.21036210615,1.615753602213251,0,0,0,8481,1,1,235
1026.21036210615,1.6493648754969188,0,0,0,8481,1,1,236
1026.3283540886775,1.660324132725582,0,0,0,8481,1,1,237
1026.2445356138855,1.6493648754969188,0,0,0,8481,1,1,238
1026.2550761746415,1.6493648754969188,0,0,0,8481,1,1,239
1026.21036210615,1.6397400226004766,0,0,0,8481,1,1,240
1026.21036210615,1.6397400226004766,0,0,0,8481,1,1,241
1026.2657055414854,1.639828453636898,0,0,0,8481,1,1,242
1026.2941805485718,1.6767696493110447,0,0,414,8481,1,1,243
1026.1998210861154,1.631352550601293,0,0,1289,8481,1,1,244
1026.2997903514142,1.5860921318289276,0,0,2342,8481,1,1,245
1026.1998210861154,1.5860921318289276,0,0,3513,8481,1,1,246
1026.21036210615,1.631352550601293,0,0,4733,8481,1,1,247
1026.1923501668903,1.6312360829155028,0,0,6013,8481,1,1,248
1026.1085507945013,1.639505905824131,0,0,7296,8481,1,1,249
1026.2191353398498,1.639594316699945,0,0,8005,8481,1,1,250
1026.163884023454,1.639594316699945,0,0,7990,8481,1,1,251
1026.1265572669145,1.639622956105157,0,0,8006,8481,1,1,252
1026.1891882009895,1.6601160505096089,0,0,7990,8481,1,1,253
1026.0906302458054,1.659939559278232,0,0,8006,8481,1,1,254
1026.0980117386925,1.6599685499217756,0,0,7990,8481,1,1,255
1026.2191353398498,1.649218314340164,0,0,8006,8481,1,1,0
1026.2638451923808,1.649218314340164,0,0,7990,8481,1,1,1
1026.1818084105962,1.649247121851331,0,0,8006,8481,1,1,2
1026.1744255956146,1.649218314340164,0,0,7990,8481,1,1,3
1026.1905842789001,1.6491005831730727,0,0,8006,8481,1,1,4
1026.1818084105962,1.639622956105157,0,0,7990,8481,1,1,5
1026.1744255956146,1.639594316699945,0,0,8006,8481,1,1,6
1026.2371479479734,1.6313240515867868,0,0,7990,8481,1,1,7
1026.1818084105962,1.6312360829155028,0,0,8006,8481,1,1,8
1026.1744255956146,1.6312075900043728,0,0,7990,8481,1,1,9
1026.2476902727592,1.6313240515867868,0,0,8006,8481,1,1,10
1026.1818084105962,1.6312360829155028,0,0,7990,8481,1,1,11
1026.1818084105962,1.639622956105157,0,0,8006,8481,1,1,12
1026.21036210615,1.6397400226004766,0,0,7990,8481,1,1,13
1026.2582345456535,1.6397113770605083,0,0,8006,8481,1,1,14
1026.226519395075,1.639622956105157,0,0,7990,8481,1,1,15
1026.1551066666018,1.6397400226004766,0,0,7350,8481,1,1,16
1026.2029774447485,1.660176585641006,0,0,5727,8481,1,1,17
1026.1191739282162,1.6600580642521607,0,0,4114,8481,1,1,18
1026.1370975343907,1.6600870611052807,0,0,2542,8481,1,1,19
1026.1656481459534,1.6941807281595922,0,0,1080,8481,1,1,20
1026.1998210861154,1.6493648754969188,0,0,58,8481,1,1,21
1026.1477214815538,1.6493360618149864,0,0,0,8481,1,1,22
1026.12971595969,1.649218314340164,0,0,0,8481,1,1,23
1026.0459233422446,1.6491005831730727,0,0,0,8481,1,1,24
1026.1085507945013,1.639505905824131,0,0,0,8481,1,1,25
1026.1818084105962,1.639622956105157,0,0,0,8481,1,1,26
1026.1191739282162,1.6312075900043728,0,0,0,8481,1,1,27
1026.21036210615,1.631352550601293,0,0,0,8481,1,1,28
1026.0459233422446,1.631091144551597,0,0,0,8481,1,1,29
1026.1744255956146,1.585951193034235,0,0,0,8481,1,1,30
1026.0923867664726,1.6312360829155028,0,0,0,8481,1,1,31
1026.1656481459534,1.6397400226004766,0,0,0,8481,1,1,32
1026.1191739282162,1.639594316699945,0,0,0,8481,1,1,33
1026.2476902727592,1.6397113770605083,0,0,0,8481,1,1,34
1026.1477214815538,1.6397113770605083,0,0,0,8481,1,1,35
1026.1265572669145,1.649247121851331,0,0,0,8481,1,1,36
1026.21036210615,1.6493648754969188,0,0,2,8481,1,1,37
1026.1564964206148,1.615581800014784,0,0,456,8481,1,1,38
1026.1818084105962,1.6600870611052807,0,0,1381,8481,1,1,39
1026.1744255956146,1.649218314340164,0,0,2511,8481,1,1,40
1026.226519395075,1.649247121851331,0,0,3750,8481,1,1,41
1026.145877618028,1.6491005831730727,0,0,5080,8481,1,1,42
1026.1011710654448,1.6491005831730727,0,0,6432,8481,1,1,43
1026.171268602366,1.649247121851331,0,0,7733,8481,1,1,44
1026.1923501668903,1.639622956105157,0,0,7990,8481,1,1,45
1026.1744255956146,1.639594316699945,0,0,8006,8481,1,1,46
1026.1818084105962,1.6312360829155028,0,0,7990,8481,1,1,47
1026.2191353398498,1.6312075900043728,0,0,8006,8481,1,1,48
1026.2191353398498,1.6312075900043728,0,0,7990,8481,1,1,49
1026.1818084105962,1.5859788954350065,0,0,8006,8481,1,1,50
1026.192434660617,1.6313240515867868,0,0,7990,8481,1,1,51
1026.237060692087,1.6312360829155028,0,0,8006,8481,1,1,52
1026.1744255956146,1.639594316699945,0,0,7990,8481,1,1,53
1026.2550761746415,1.6397400226004766,0,0,8006,8481,1,1,54
1026.226519395075,1.649247121851331,0,0,7990,8481,1,1,55
1026.163884023454,1.649218314340164,0,0,8006,8481,1,1,56
1026.1370975343907,1.649247121851331,0,0,7990,8481,1,1,57
1026.0906302458054,1.6491005831730727,0,0,8006,8481,1,1,58
1026.1923501668903,1.6600870611052807,0,0,7990,8481,1,1,59
1026.2191353398498,1.649218314340164,0,0,8006,8481,1,1,60
1026.171268602366,1.649247121851331,0,0,7990,8481,1,1,61
1026.163884023454,1.649218314340164,0,0,8006,8481,1,1,62
1026.171268602366,1.649247121851331,0,0,7990,8481,1,1,63
1026.2476902727592,1.6493360618149864,0,0,8006,8481,1,1,64
1026.1818084105962,1.639622956105157,0,0,7990,8481,1,1,65
1026.2656186836005,1.6397400226004766,0,0,8006,8481,1,1,66
1026.2476902727592,1.6313240515867868,0,0,7470,8481,1,1,67
1026.1744255956146,1.6312075900043728,0,0,5919,8481,1,1,68
1026.163884023454,1.6312075900043728,0,0,4318,8481,1,1,69
1026.2476902727592,1.5860644234941128,0,0,2799,8481,1,1,70
1026.1265572669145,1.5859788954350065,0,0,1382,8481,1,1,71
1026.21036210615,1.631352550601293,0,0,210,8481,1,1,72
1026.1370975343907,1.639622956105157,0,0,0,8481,1,1,73
1026.176191573659,1.6397400226004766,0,0,0,8481,1,1,74
1026.1656481459534,1.6397400226004766,0,0,0,8481,1,1,75
1026.12971595969,1.639594316699945,0,0,0,8481,1,1,76
1026.1923501668903,1.604498042222124,0,0,0,8481,1,1,77
1026.1191739282162,1.6600580642521607,0,0,0,8481,1,1,78
1026.1191739282162,1.6600580642521607,0,0,0,8481,1,1,79
1026.1191739282162,1.649218314340164,0,0,0,8481,1,1,80
1026.1818084105962,1.649247121851331,0,0,0,8481,1,1,81
1026.0923867664726,1.649247121851331,0,0,0,8481,1,1,82
1026.163884023454,1.649218314340164,0,0,0,8481,1,1,83
1026.12971595969,1.649218314340164,0,0,0,8481,1,1,84
1026.12971595969,1.639594316699945,0,0,0,8481,1,1,85
1026.1370975343907,1.639622956105157,0,0,0,8481,1,1,86
1026.12971595969,1.6312075900043728,0,0,29,8481,1,1,87
1026.1744255956146,1.6312075900043728,0,0,596,8481,1,1,88
1026.1818084105962,1.6312360829155028,0,0,1542,8481,1,1,89
1026.2029774447485,1.6397113770605083,0,0,2671,8481,1,1,90
1026.1191739282162,1.6312075900043728,0,0,3900,8481,1,1,91
1026.1370975343907,1.5859788954350065,0,0,5211,8481,1,1,92
1026.1744255956146,1.639594316699945,0,0,6536,8481,1,1,93
1026.1818084105962,1.5946038181149398,0,0,7780,8481,1,1,94
1026.2550761746415,1.6397400226004766,0,0,7990,8481,1,1,95
1026.1744255956146,1.639594316699945,0,0,8006,8481,1,1,96
1026.2924032090882,1.6493360618149864,0,0,7990,8481,1,1,97
1026.108633844848,1.6600580642521607,0,0,8006,8481,1,1,98
1026.1744255956146,1.6600580642521607,0,0,7990,8481,1,1,99
1026.1818084105962,1.649247121851331,0,0,8006,8481,1,1,100
1026.1818084105962,1.649247121851331,0,0,7990,8481,1,1,101
1026.1744255956146,1.649218314340164,0,0,8006,8481,1,1,102
1026.1818084105962,1.649247121851331,0,0,7990,8481,1,1,103
1026.1923501668903,1.639622956105157,0,0,8006,8481,1,1,104
1026.2191353398498,1.639594316699945,0,0,7990,8481,1,1,105
1026.2029774447485,1.6397113770605083,0,0,8006,8481,1,1,106
1026.1818084105962,1.6312360829155028,0,0,7990,8481,1,1,107
1026.2085065732813,1.6311196313610683,0,0,8006,8481,1,1,108
1026.237060692087,1.6312360829155028,0,0,7990,8481,1,1,109
1026.2476902727592,1.6313240515867868,0,0,8006,8481,1,1,110
1026.1818084105962,1.6312360829155028,0,0,7990,8481,1,1,111
1026.237060692087,1.5946038181149398,0,0,8006,8481,1,1,112
1026.2656186836005,1.631352550601293,0,0,7990,8481,1,1,113
1026.1849691157445,1.639594316699945,0,0,8006,8481,1,1,114
1026.2550761746415,1.6397400226004766,0,0,7990,8481,1,1,115
1026.2445356138855,1.6397400226004766,0,0,8006,8481,1,1,116
1026.1744255956146,1.649218314340164,0,0,7918,8481,1,1,117
1026.2371479479734,1.660176585641006,0,0,6742,8481,1,1,118
1026.21036210615,1.6602055887054497,0,0,5130,8481,1,1,119
1026.2476902727592,1.6493360618149864,0,0,3566,8481,1,1,120
1026.163884023454,1.649218314340164,0,0,2070,8481,1,1,121
1026.21036210615,1.6493648754969188,0,0,704,8481,1,1,122
1026.1191739282162,1.649218314340164,0,0,2,8481,1,1,123
1026.12971595969,1.684662204030614,0,0,0,8481,1,1,124
1026.1191739282162,1.639594316699945,0,0,0,8481,1,1,125
1026.1818084105962,1.639622956105157,0,0,0,8481,1,1,126
1026.0923867664726,1.6312360829155028,0,0,0,8481,1,1,127
1026.056464621164,1.631091144551597,0,0,0,8481,1,1,128
1026.2029774447485,1.6313240515867868,0,0,0,8481,1,1,129
1026.192434660617,1.676620640772058,0,0,0,8481,1,1,130
1026.1998210861154,1.631352550601293,0,0,0,8481,1,1,131
1026.1370975343907,1.5946038181149398,0,0,0,8481,1,1,132
1026.1818084105962,1.5946038181149398,0,0,0,8481,1,1,133
1026.1656481459534,1.5947176703147485,0,0,0,8481,1,1,134
1026.12971595969,1.639594316699945,0,0,0,8481,1,1,135
1026.1818084105962,1.5946038181149398,0,0,0,8481,1,1,136
1026.15826472507,1.6157253757055408,0,0,0,8481,1,1,137
1026.1998210861154,1.6602055887054497,0,0,28,8481,1,1,138
1026.192434660617,1.660176585641006,0,0,598,8481,1,1,139
1026.2029774447485,1.6493360618149864,0,0,1560,8481,1,1,140
1026.2656186836005,1.6493648754969188,0,0,2687,8481,1,1,141
1026.192434660617,1.6493360618149864,0,0,3927,8481,1,1,142
1026.21036210615,1.6941807281595922,0,0,5216,8481,1,1,143
1026.2550761746415,1.6493648754969188,0,0,6567,8481,1,1,144
1026.2656186836005,1.6397400226004766,0,0,7779,8481,1,1,145
1026.237060692087,1.639622956105157,0,0,8006,8481,1,1,146
1026.1818084105962,1.6312360829155028,0,0,7990,8481,1,1,147
1026.2296784006298,1.6312075900043728,0,0,8006,8481,1,1,148
1026.226519395075,1.6312360829155028,0,0,7990,8481,1,1,149
1026.3209650989184,1.6767403526965297,0,0,8006,8481,1,1,150
1026.2550761746415,1.631352550601293,0,0,7990,8481,1,1,151
1026.3103324010583,1.631352550601293,0,0,8006,8481,1,1,152
1026.2445356138855,1.5947176703147485,0,0,7990,8481,1,1,153
1026.2582345456535,1.6397113770605083,0,0,8006,8481,1,1,154
1026.2550761746415,1.6397400226004766,0,0,7990,8481,1,1,155
1026.2550761746415,1.5947176703147485,0,0,8006,8481,1,1,156
1026.1744255956146,1.6600580642521607,0,0,7990,8481,1,1,157
1026.2550761746415,1.6602055887054497,0,0,8006,8481,1,1,158
1026.2445356138855,1.6602055887054497,0,0,7990,8481,1,1,159
1026.281861343609,1.6493360618149864,0,0,8006,8481,1,1,160
1026.3371162537208,1.6493360618149864,0,0,7990,8481,1,1,161
1026.208594226963,1.649218314340164,0,0,8006,8481,1,1,162
1026.3283540886775,1.6494826454552518,0,0,7990,8481,1,1,163
1026.2476902727592,1.6493360618149864,0,0,8006,8481,1,1,164
1026.2191353398498,1.684662204030614,0,0,7990,8481,1,1,165
1026.2550761746415,1.6397400226004766,0,0,8006,8481,1,1,166
1026.12971595969,1.6765009454284245,0,0,7990,8481,1,1,167
1026.1744255956146,1.6312075900043728,0,0,7567,8481,1,1,168
1026.2191353398498,1.6312075900043728,0,0,5975,8481,1,1,169
1026.1370975343907,1.6312360829155028,0,0,4337,8481,1,1,170
1026.163884023454,1.6312075900043728,0,0,2730,8481,1,1,171
1026.163884023454,1.639594316699945,0,0,1226,8481,1,1,172
1026.21036210615,1.5947176703147485,0,0,96,8481,1,1,173
1026.12971595969,1.5945759650620597,0,0,0,8481,1,1,174
1026.192434660617,1.6397113770605083,0,0,0,8481,1,1,175
1026.1477214815538,1.6397113770605083,0,0,0,8481,1,1,176
1026.2029774447485,1.660176585641006,0,0,0,8481,1,1,177
1026.1191739282162,1.6600580642521607,0,0,0,8481,1,1,178
1026.2550761746415,1.6602055887054497,0,0,0,8481,1,1,179
1026.21036210615,1.6493648754969188,0,0,0,8481,1,1,180
1026.21036210615,1.6493648754969188,0,0,0,8481,1,1,181
1026.1818084105962,1.6940597749611888,0,0,0,8481,1,1,182
1026.2550761746415,1.6941807281595922,0,0,0,8481,1,1,183
1026.2029774447485,1.6941511315643436,0,0,0,8481,1,1,184
1026.21036210615,1.684811914981079,0,0,0,8481,1,1,185
1026.21036210615,1.684811914981079,0,0,0,8481,1,1,186
1026.1998210861154,1.676649931111961,0,0,0,8481,1,1,187
1026.12971595969,1.6312075900043728,0,0,0,8481,1,1,188
1026.217743742431,1.631381042295107,0,0,0,8481,1,1,189
1026.192434660617,1.6397113770605083,0,0,0,8481,1,1,190
1026.1370975343907,1.6312360829155028,0,0,155,8481,1,1,191
1026.12971595969,1.639594316699945,0,0,936,8481,1,1,192
1026.12971595969,1.5945759650620597,0,0,1976,8481,1,1,193
1026.1477214815538,1.6397113770605083,0,0,3168,8481,1,1,194
1026.21036210615,1.6397400226004766,0,0,4430,8481,1,1,195
1026.21036210615,1.6397400226004766,0,0,5756,8481,1,1,196
1026.12971595969,1.6600580642521607,0,0,7084,8481,1,1,197
1026.2445356138855,1.6602055887054497,0,0,7985,8481,1,1,198
1026.2550761746415,1.6602055887054497,0,0,7990,8481,1,1,199
1026.171268602366,1.649247121851331,0,0,8006,8481,1,1,200
1026.2997903514142,1.6941807281595922,0,0,7990,8481,1,1,201
1026.226519395075,1.6940597749611888,0,0,8006,8481,1,1,202
1026.163884023454,1.694030184704375,0,0,7990,8481,1,1,203
1026.2656186836005,1.6941807281595922,0,0,8006,8481,1,1,204
1026.1085507945013,1.639505905824131,0,0,7990,8481,1,1,205
1026.237060692087,1.6846916306534168,0,0,8006,8481,1,1,206
1026.171268602366,1.6765302294954805,0,0,7990,8481,1,1,207
1026.0906302458054,1.631091144551597,0,0,8006,8481,1,1,208
1026.2550761746415,1.631352550601293,0,0,7990,8481,1,1,209
1026.1818084105962,1.639622956105157,0,0,8006,8481,1,1,210
1026.2371479479734,1.676620640772058,0,0,7990,8481,1,1,211
1026.3029470226002,1.6397113770605083,0,0,8006,8481,1,1,212
1026.2997903514142,1.6397400226004766,0,0,7990,8481,1,1,213
1026.2550761746415,1.5947176703147485,0,0,8006,8481,1,1,214
1026.1191739282162,1.639594316699945,0,0,7990,8481,1,1,215
1026.0906302458054,1.639477272551949,0,0,8006,8481,1,1,216
1026.1818084105962,1.6600870611052807,0,0,7990,8481,1,1,217
1026.171268602366,1.6600870611052807,0,0,8006,8481,1,1,218
1026.163884023454,1.6600580642521607,0,0,7990,8481,1,1,219
1026.1818084105962,1.649247121851331,0,0,7290,8481,1,1,220
1026.2656186836005,1.6493648754969188,0,0,5718,8481,1,1,221
1026.2550761746415,1.6941807281595922,0,0,4180,8481,1,1,222
1026.2445356138855,1.6941807281595922,0,0,2692,8481,1,1,223
1026.2476902727592,1.6493360618149864,0,0,1321,8481,1,1,224
1026.12971595969,1.649218314340164,0,0,188,8481,1,1,225
1026.2029774447485,1.6397113770605083,0,0,0,8481,1,1,226
1026.1265572669145,1.6765302294954805,0,0,0,8481,1,1,227
1026.1265572669145,1.6312360829155028,0,0,0,8481,1,1,228
1026.21036210615,1.631352550601293,0,0,0,8481,1,1,229
1026.2029774447485,1.6313240515867868,0,0,0,8481,1,1,230
1026.192434660617,1.6313240515867868,0,0,0,8481,1,1,231
1026.1191739282162,1.639594316699945,0,0,0,8481,1,1,232
1026.1085507945013,1.639505905824131,0,0,0,8481,1,1,233
1026.0906302458054,1.639477272551949,0,0,0,8481,1,1,234
1026.06384311014,1.639505905824131,0,0,0,8481,1,1,235
1026.0744639412642,1.649218314340164,0,0,0,8481,1,1,236
1026.12971595969,1.6600580642521607,0,0,0,8481,1,1,237
1026.081846039712,1.649247121851331,0,0,0,8481,1,1,238
1026.192434660617,1.660176585641006,0,0,0,8481,1,1,239
1026.1191739282162,1.649218314340164,0,0,0,8481,1,1,240
1026.171268602366,1.649247121851331,0,0,232,8481,1,1,241
1026.0459233422446,1.6491005831730727,0,0,1019,8481,1,1,242
1026.06384311014,1.6939388385154064,0,0,2009,8481,1,1,243
1026.1818084105962,1.649247121851331,0,0,3134,8481,1,1,244
1026.1085507945013,1.6845713629857337,0,0,4325,8481,1,1,245
1026.215980046051,1.639622956105157,0,0,5578,8481,1,1,246
1026.12971595969,1.6765009454284245,0,0,6835,8481,1,1,247
1026.1923501668903,1.6312360829155028,0,0,7899,8481,1,1,248
1026.2191353398498,1.6312075900043728,0,0,7990,8481,1,1,249
1026.2550761746415,1.631352550601293,0,0,8006,8481,1,1,250
1026.0850064320898,1.6312075900043728,0,0,7990,8481,1,1,251
1026.226519395075,1.6312360829155028,0,0,8006,8481,1,1,252
1026.1923501668903,1.639622956105157,0,0,7990,8481,1,1,253
1026.226519395075,1.639622956105157,0,0,8006,8481,1,1,254
1026.192434660617,1.6397113770605083,0,0,7990,8481,1,1,255
1026.1370975343907,1.639622956105157,0,0,8006,8481,1,1,0
1026.1923501668903,1.649247121851331,0,0,7990,8481,1,1,1
1026.163884023454,1.6600580642521607,0,0,8006,8481,1,1,2
1026.1744255956146,1.6600580642521607,0,0,7990,8481,1,1,3
1026.163884023454,1.694030184704375,0,0,8006,8481,1,1,4
1026.208594226963,1.6600580642521607,0,0,7990,8481,1,1,5
1026.163884023454,1.649218314340164,0,0,8006,8481,1,1,6
1026.1818084105962,1.649247121851331,0,0,7990,8481,1,1,7
1026.1744255956146,1.694030184704375,0,0,8006,8481,1,1,8
1026.1744255956146,1.639594316699945,0,0,7990,8481,1,1,9
1026.2191353398498,1.639594316699945,0,0,8006,8481,1,1,10
1026.163884023454,1.6765009454284245,0,0,7990,8481,1,1,11
1026.2656186836005,1.631352550601293,0,0,8006,8481,1,1,12
1026.1818084105962,1.6312360829155028,0,0,7886,8481,1,1,13
1026.192434660617,1.6313240515867868,0,0,6668,8481,1,1,14
1026.1265572669145,1.6312360829155028,0,0,5092,8481,1,1,15
1026.1191739282162,1.639594316699945,0,0,3566,8481,1,1,16
1026.1818084105962,1.6312360829155028,0,0,2112,8481,1,1,17
1026.1818084105962,1.639622956105157,0,0,788,8481,1,1,18
1026.1370975343907,1.639622956105157,0,0,13,8481,1,1,19
1026.1477214815538,1.6493360618149864,0,0,0,8481,1,1,20
1026.1191739282162,1.6600580642521607,0,0,0,8481,1,1,21
1026.1191739282162,1.6600580642521607,0,0,0,8481,1,1,22
1026.21036210615,1.6602055887054497,0,0,0,8481,1,1,23
1026.2029774447485,1.6941511315643436,0,0,0,8481,1,1,24
1026.21036210615,1.6493648754969188,0,0,0,8481,1,1,25
1026.2029774447485,1.6493360618149864,0,0,0,8481,1,1,26
1026.1370975343907,1.649247121851331,0,0,0,8481,1,1,27
1026.1370975343907,1.639622956105157,0,0,0,8481,1,1,28
1026.2029774447485,1.6397113770605083,0,0,0,8481,1,1,29
1026.21036210615,1.6397400226004766,0,0,0,8481,1,1,30
1026.1744255956146,1.639594316699945,0,0,0,8481,1,1,31
1026.12971595969,1.6312075900043728,0,0,0,8481,1,1,32
1026.1818084105962,1.6312360829155028,0,0,0,8481,1,1,33
1026.1656481459534,1.631352550601293,0,0,19,8481,1,1,34
1026.1998210861154,1.631352550601293,0,0,539,8481,1,1,35
1026.1818084105962,1.639622956105157,0,0,1450,8481,1,1,36
1026.21036210615,1.6397400226004766,0,0,2527,8481,1,1,37
1026.1818084105962,1.639622956105157,0,0,3719,8481,1,1,38
1026.1818084105962,1.639622956105157,0,0,4960,8481,1,1,39
1026.163884023454,1.639594316699945,0,0,6257,8481,1,1,40
1026.1085507945013,1.6599685499217756,0,0,7528,8481,1,1,41
1026.163884023454,1.6600580642521607,0,0,8006,8481,1,1,42
1026.2029774447485,1.660176585641006,0,0,7990,8481,1,1,43
1026.226519395075,1.649247121851331,0,0,8006,8481,1,1,44
1026.2476902727592,1.6941511315643436,0,0,7990,8481,1,1,45
1026.1744255956146,1.694030184704375,0,0,8006,8481,1,1,46
1026.2550761746415,1.6941807281595922,0,0,7990,8481,1,1,47
1026.163884023454,1.649218314340164,0,0,8006,8481,1,1,48
1026.2476902727592,1.6397113770605083,0,0,7990,8481,1,1,49
1026.1818084105962,1.639622956105157,0,0,8006,8481,1,1,50
1026.1744255956146,1.6312075900043728,0,0,7990,8481,1,1,51
1026.226519395075,1.6241056705123584,0,0,8006,8481,1,1,52
1026.2656186836005,1.631352550601293,0,0,7990,8481,1,1,53
1026.1744255956146,1.6312075900043728,0,0,8006,8481,1,1,54
1026.1818084105962,1.6312360829155028,0,0,7990,8481,1,1,55
1026.2191353398498,1.639594316699945,0,0,8006,8481,1,1,56
1026.226519395075,1.639622956105157,0,0,7990,8481,1,1,57
1026.237060692087,1.639622956105157,0,0,8006,8481,1,1,58
1026.1370975343907,1.639622956105157,0,0,7990,8481,1,1,59
1026.0980117386925,1.639505905824131,0,0,8006,8481,1,1,60
1026.1744255956146,1.6600580642521607,0,0,7990,8481,1,1,61
1026.21036210615,1.6602055887054497,0,0,8006,8481,1,1,62
1026.12971595969,1.6600580642521607,0,0,7830,8481,1,1,63
1026.1085507945013,1.6939388385154064,0,0,6497,8481,1,1,64
1026.163884023454,1.694030184704375,0,0,4877,8481,1,1,65
1026.1191739282162,1.649218314340164,0,0,3307,8481,1,1,66
1026.1744255956146,1.649218314340164,0,0,1808,8481,1,1,67
1026.1353372576302,1.6491005831730727,0,0,448,8481,1,1,68
1026.1191739282162,1.684662204030614,0,0,0,8481,1,1,69
1026.1818084105962,1.639622956105157,0,0,0,8481,1,1,70
1026.21036210615,1.631352550601293,0,0,0,8481,1,1,71
1026.1265572669145,1.6312360829155028,0,0,0,8481,1,1,72
1026.1923501668903,1.6312360829155028,0,0,0,8481,1,1,73
1026.12971595969,1.6312075900043728,0,0,0,8481,1,1,74
1026.0459233422446,1.631091144551597,0,0,0,8481,1,1,75
1026.1191739282162,1.6312075900043728,0,0,0,8481,1,1,76
1026.12971595969,1.639594316699945,0,0,0,8481,1,1,77
1026.056464621164,1.639477272551949,0,0,0,8481,1,1,78
1026.12971595969,1.639594316699945,0,0,0,8481,1,1,79
1026.019135534058,1.639505905824131,0,0,0,8481,1,1,80
1026.0533035951182,1.64912938451521,0,0,0,8481,1,1,81
1026.1191739282162,1.6600580642521607,0,0,0,8481,1,1,82
1026.1191739282162,1.6600580642521607,0,0,0,8481,1,1,83
1026.06384311014,1.64912938451521,0,0,0,8481,1,1,84
1026.056464621164,1.659939559278232,0,0,0,8481,1,1,85
1026.1191739282162,1.694030184704375,0,0,0,8481,1,1,86
1026.12971595969,1.694030184704375,0,0,383,8481,1,1,87
1026.1191739282162,1.694030184704375,0,0,1307,8481,1,1,88
1026.163884023454,1.684662204030614,0,0,2426,8481,1,1,89
1026.163884023454,1.684662204030614,0,0,3672,8481,1,1,90
1026.056464621164,1.6763812666622973,0,0,4973,8481,1,1,91
1026.1670397565297,1.6764716538400861,0,0,6329,8481,1,1,92
1026.163884023454,1.6765009454284245,0,0,7624,8481,1,1,93
1026.21036210615,1.6397400226004766,0,0,8006,8481,1,1,94
1026.2550761746415,1.631352550601293,0,0,7990,8481,1,1,95
1026.2191353398498,1.6312075900043728,0,0,8006,8481,1,1,96
1026.2296784006298,1.639594316699945,0,0,7990,8481,1,1,97
1026.192434660617,1.6397113770605083,0,0,8006,8481,1,1,98
1026.226519395075,1.639622956105157,0,0,7990,8481,1,1,99
1026.1744255956146,1.639594316699945,0,0,8006,8481,1,1,100
1026.2209050744627,1.6602055887054497,0,0,7990,8481,1,1,101
1026.226519395075,1.6600870611052807,0,0,8006,8481,1,1,102
1026.1191739282162,1.6600580642521607,0,0,7990,8481,1,1,103
1026.1818084105962,1.649247121851331,0,0,8006,8481,1,1,104
1026.2476902727592,1.6941511315643436,0,0,7990,8481,1,1,105
1026.1744255956146,1.694030184704375,0,0,8006,8481,1,1,106
1026.2550761746415,1.6941807281595922,0,0,7990,8481,1,1,107
1026.1744255956146,1.694030184704375,0,0,8006,8481,1,1,108
1026.2550761746415,1.684811914981079,0,0,7990,8481,1,1,109
1026.2191353398498,1.684662204030614,0,0,8006,8481,1,1,110
1026.163884023454,1.6312075900043728,0,0,7990,8481,1,1,111
1026.2476902727592,1.676620640772058,0,0,8006,8481,1,1,112
1026.2476902727592,1.6313240515867868,0,0,7990,8481,1,1,113
1026.2550761746415,1.631352550601293,0,0,8006,8481,1,1,114
1026.1818084105962,1.6312360829155028,0,0,7445,8481,1,1,115
1026.1744255956146,1.6312075900043728,0,0,5840,8481,1,1,116
1026.2550761746415,1.6397400226004766,0,0,4166,8481,1,1,117
1026.2476902727592,1.6397113770605083,0,0,2551,8481,1,1,118
1026.21036210615,1.6397400226004766,0,0,1014,8481,1,1,119
1026.21036210615,1.6493648754969188,0,0,31,8481,1,1,120
1026.1891882009895,1.6601160505096089,0,0,0,8481,1,1,121
1026.1656481459534,1.6493648754969188,0,0,0,8481,1,1,122
1026.192434660617,1.660176585641006,0,0,0,8481,1,1,123
1026.1508782798116,1.6493072407328002,0,0,0,8481,1,1,124
1026.2209050744627,1.6941807281595922,0,0,0,8481,1,1,125
1026.0744639412642,1.694030184704375,0,0,0,8481,1,1,126
1026.21036210615,1.6941807281595922,0,0,0,8481,1,1,127
1026.1265572669145,1.6940597749611888,0,0,0,8481,1,1,128
1026.1998210861154,1.6941807281595922,0,0,0,8481,1,1,129
1026.163884023454,1.684662204030614,0,0,0,8481,1,1,130
1026.1656481459534,1.676649931111961,0,0,0,8481,1,1,131
1026.1476397500057,1.6312360829155028,0,0,0,8481,1,1,132
1026.1818084105962,1.6312360829155028,0,0,0,8481,1,1,133
1026.056464621164,1.631091144551597,0,0,0,8481,1,1,134
1026.1370975343907,1.6312360829155028,0,0,0,8481,1,1,135
1026.1744255956146,1.639594316699945,0,0,0,8481,1,1,136
1026.1011710654448,1.639477272551949,0,0,0,8481,1,1,137
1026.1011710654448,1.639477272551949,0,0,0,8481,1,1,138
1026.1551066666018,1.6397400226004766,0,0,127,8481,1,1,139
1026.1370975343907,1.639622956105157,0,0,904,8481,1,1,140
1026.1818084105962,1.6600870611052807,0,0,1962,8481,1,1,141
1026.21036210615,1.7047364734507229,0,0,3167,8481,1,1,142
1026.1191739282162,1.6600580642521607,0,0,4433,8481,1,1,143
1026.163884023454,1.694030184704375,0,0,5757,8481,1,1,144
1026.1744255956146,1.694030184704375,0,0,7077,8481,1,1,145
1026.1191739282162,1.694030184704375,0,0,7983,8481,1,1,146
1026.21036210615,1.6941807281595922,0,0,7990,8481,1,1,147
1026.163799131613,1.6939388385154064,0,0,8006,8481,1,1,148
1026.163884023454,1.684662204030614,0,0,7990,8481,1,1,149
1026.226519395075,1.6846916306534168,0,0,8006,8481,1,1,150
1026.2191353398498,1.6765009454284245,0,0,7990,8481,1,1,151
1026.237060692087,1.6312360829155028,0,0,8006,8481,1,1,152
1026.1744255956146,1.6312075900043728,0,0,7990,8481,1,1,153
1026.1744255956146,1.6765009454284245,0,0,8006,8481,1,1,154
1026.163884023454,1.6312075900043728,0,0,7990,8481,1,1,155
1026.171268602366,1.639622956105157,0,0,8006,8481,1,1,156
1026.2550761746415,1.6397400226004766,0,0,7990,8481,1,1,157
1026.1370975343907,1.639622956105157,0,0,8006,8481,1,1,158
1026.1744255956146,1.639594316699945,0,0,7990,8481,1,1,159
1026.1818084105962,1.639622956105157,0,0,8006,8481,1,1,160
1026.2371479479734,1.660176585641006,0,0,7990,8481,1,1,161
1026.192434660617,1.660176585641006,0,0,8006,8481,1,1,162
1026.1923501668903,1.6600870611052807,0,0,7990,8481,1,1,163
1026.2191353398498,1.649218314340164,0,0,8006,8481,1,1,164
1026.1818084105962,1.649247121851331,0,0,7990,8481,1,1,165
1026.2476902727592,1.6941511315643436,0,0,8006,8481,1,1,166
1026.226519395075,1.6940597749611888,0,0,7990,8481,1,1,167
1026.163884023454,1.694030184704375,0,0,7248,8481,1,1,168
1026.1818084105962,1.6846916306534168,0,0,5644,8481,1,1,169
1026.1744255956146,1.684662204030614,0,0,4060,8481,1,1,170
1026.0459233422446,1.6763812666622973,0,0,2517,8481,1,1,171
1026.1370975343907,1.6312360829155028,0,0,1082,8481,1,1,172
1026.1370975343907,1.6765302294954805,0,0,63,8481,1,1,173
1026.163884023454,1.6765009454284245,0,0,0,8481,1,1,174
1026.0744639412642,1.6312075900043728,0,0,0,8481,1,1,175
1026.0850064320898,1.639594316699945,0,0,0,8481,1,1,176
1026.1370975343907,1.639622956105157,0,0,0,8481,1,1,177
1026.0923867664726,1.639622956105157,0,0,0,8481,1,1,178
1026.1191739282162,1.639594316699945,0,0,0,8481,1,1,179
1026.1191739282162,1.639594316699945,0,0,0,8481,1,1,180
1026.0850064320898,1.649218314340164,0,0,0,8481,1,1,181
1026.1477214815538,1.660176585641006,0,0,0,8481,1,1,182
1026.0850064320898,1.6600580642521607,0,0,0,8481,1,1,183
1026.0923867664726,1.6940597749611888,0,0,0,8481,1,1,184
1026.12971595969,1.694030184704375,0,0,0,8481,1,1,185
1026.1191739282162,1.694030184704375,0,0,0,8481,1,1,186
1026.1191739282162,1.694030184704375,0,0,0,8481,1,1,187
1026.1998210861154,1.6941807281595922,0,0,0,8481,1,1,188
1026.12971595969,1.684662204030614,0,0,16,8481,1,1,189
1026.2550761746415,1.684811914981079,0,0,556,8481,1,1,190
1026.171268602366,1.6765302294954805,0,0,1529,8481,1,1,191
1026.1744255956146,1.6312075900043728,0,0,2700,8481,1,1,192
1026.1818084105962,1.6765302294954805,0,0,3971,8481,1,1,193
1026.1744255956146,1.6765009454284245,0,0,5328,8481,1,1,194
1026.1191739282162,1.6765009454284245,0,0,6704,8481,1,1,195
1026.2476902727592,1.6397113770605083,0,0,7884,8481,1,1,196
1026.2550761746415,1.6397400226004766,0,0,7990,8481,1,1,197
1026.1818084105962,1.639622956105157,0,0,8006,8481,1,1,198
1026.1818084105962,1.639622956105157,0,0,7990,8481,1,1,199
1026.2029774447485,1.6493360618149864,0,0,8006,8481,1,1,200
1026.226519395075,1.6600870611052807,0,0,7990,8481,1,1,201
1026.163884023454,1.6600580642521607,0,0,8006,8481,1,1,202
1026.226519395075,1.6600870611052807,0,0,7990,8481,1,1,203
1026.06384311014,1.6939388385154064,0,0,8006,8481,1,1,204
1026.1011710654448,1.6939092545952448,0,0,7990,8481,1,1,205
1026.1117875658506,1.6940005868476373,0,0,8006,8481,1,1,206
1026.0906302458054,1.6939092545952448,0,0,7990,8481,1,1,207
1026.1353372576302,1.6939092545952448,0,0,8006,8481,1,1,208
1026.1818084105962,1.6846916306534168,0,0,7990,8481,1,1,209
1026.1744255956146,1.684662204030614,0,0,8006,8481,1,1,210
1026.1085507945013,1.6764105444582709,0,0,7990,8481,1,1,211
1026.1923501668903,1.6312360829155028,0,0,8006,8481,1,1,212
1026.1744255956146,1.6312075900043728,0,0,7990,8481,1,1,213
1026.1744255956146,1.639594316699945,0,0,8006,8481,1,1,214
1026.171268602366,1.6765302294954805,0,0,7990,8481,1,1,215
1026.1818084105962,1.639622956105157,0,0,8006,8481,1,1,216
1026.1370975343907,1.639622956105157,0,0,7990,8481,1,1,217
1026.1085507945013,1.639505905824131,0,0,7593,8481,1,1,218
1026.1085507945013,1.639505905824131,0,0,5955,8481,1,1,219
1026.1818084105962,1.649247121851331,0,0,4246,8481,1,1,220
1026.192434660617,1.6493360618149864,0,0,2568,8481,1,1,221
1026.12971595969,1.6600580642521607,0,0,998,8481,1,1,222
1026.2315331661805,1.7048284097400705,0,0,23,8481,1,1,223
1026.1551066666018,1.6941807281595922,0,0,0,8481,1,1,224
1026.21036210615,1.6941807281595922,0,0,0,8481,1,1,225
1026.0923867664726,1.6940597749611888,0,0,0,8481,1,1,226
1026.1477214815538,1.6941511315643436,0,0,0,8481,1,1,227
1026.1370975343907,1.6940597749611888,0,0,0,8481,1,1,228
1026.171268602366,1.6846916306534168,0,0,0,8481,1,1,229
1026.1818084105962,1.6846916306534168,0,0,0,8481,1,1,230
1026.1998210861154,1.676649931111961,0,0,0,8481,1,1,231
1026.2029774447485,1.6313240515867868,0,0,0,8481,1,1,232
1026.171268602366,1.6312360829155028,0,0,0,8481,1,1,233
1026.1191739282162,1.6765009454284245,0,0,0,8481,1,1,234
1026.1370975343907,1.6312360829155028,0,0,0,8481,1,1,235
1026.12971595969,1.639594316699945,0,0,0,8481,1,1,236
1026.2836368274573,1.6398571053133486,0,0,0,8481,1,1,237
1026.1656481459534,1.6397400226004766,0,0,0,8481,1,1,238
1026.2389196745403,1.6494826454552518,0,0,0,8481,1,1,239
1026.1191739282162,1.649218314340164,0,0,0,8481,1,1,240
1026.1551066666018,1.6602055887054497,0,0,0,8481,1,1,241
1026.1477214815538,1.660176585641006,0,0,446,8481,1,1,242
1026.21036210615,1.6602055887054497,0,0,1425,8481,1,1,243
1026.2550761746415,1.6941807281595922,0,0,2618,8481,1,1,244
1026.2924032090882,1.704706692451228,0,0,3922,8481,1,1,245
1026.3283540886775,1.6943016981139836,0,0,5306,8481,1,1,246
1026.21036210615,1.6941807281595922,0,0,6694,8481,1,1,247
1026.2997903514142,1.6493648754969188,0,0,7880,8481,1,1,248
1026.2656186836005,1.6397400226004766,0,0,7990,8481,1,1,249
1026.2550761746415,1.6397400226004766,0,0,8006,8481,1,1,250
1026.2656186836005,1.676649931111961,0,0,7990,8481,1,1,251
1026.2550761746415,1.676649931111961,0,0,8006,8481,1,1,252
1026.2550761746415,1.631352550601293,0,0,7990,8481,1,1,253
1026.2997903514142,1.631352550601293,0,0,8006,8481,1,1,254
1026.2029774447485,1.676620640772058,0,0,7990,8481,1,1,255
1026.3103324010583,1.6397400226004766,0,0,8006,8481,1,1,0
1026.2924032090882,1.6397113770605083,0,0,7990,8481,1,1,1
1026.3283540886775,1.6398571053133486,0,0,8006,8481,1,1,2
1026.208594226963,1.639594316699945,0,0,7990,8481,1,1,3
1026.2550761746415,1.6493648754969188,0,0,8006,8481,1,1,4
1026.2656186836005,1.6493648754969188,0,0,7990,8481,1,1,5
1026.2371479479734,1.704706692451228,0,0,8006,8481,1,1,6
1026.21036210615,1.7047364734507229,0,0,7990,8481,1,1,7
1026.2476902727592,1.6941511315643436,0,0,8006,8481,1,1,8
1026.2550761746415,1.7047364734507229,0,0,7990,8481,1,1,9
1026.2445356138855,1.6941807281595922,0,0,8006,8481,1,1,10
1026.21036210615,1.6941807281595922,0,0,7990,8481,1,1,11
1026.1370975343907,1.649247121851331,0,0,8006,8481,1,1,12
1026.226519395075,1.649247121851331,0,0,7990,8481,1,1,13
1026.2550761746415,1.6397400226004766,0,0,7796,8481,1,1,14
1026.2476902727592,1.676620640772058,0,0,6397,8481,1,1,15
1026.2476902727592,1.676620640772058,0,0,4822,8481,1,1,16
1026.2924032090882,1.6313240515867868,0,0,3261,8481,1,1,17
1026.1818084105962,1.639622956105157,0,0,1802,8481,1,1,18
1026.1656481459534,1.676649931111961,0,0,476,8481,1,1,19
1026.21036210615,1.6397400226004766,0,0,0,8481,1,1,20
1026.1370975343907,1.639622956105157,0,0,0,8481,1,1,21
1026.1998210861154,1.6397400226004766,0,0,0,8481,1,1,22
1026.1191739282162,1.639594316699945,0,0,0,8481,1,1,23
1026.1656481459534,1.6493648754969188,0,0,0,8481,1,1,24
1026.2445356138855,1.7047364734507229,0,0,0,8481,1,1,25
1026.1477214815538,1.704706692451228,0,0,0,8481,1,1,26
1026.192434660617,1.704706692451228,0,0,0,8481,1,1,27
1026.1551066666018,1.6941807281595922,0,0,0,8481,1,1,28
1026.2371479479734,1.6941511315643436,0,0,0,8481,1,1,29
1026.2445356138855,1.6941807281595922,0,0,0,8481,1,1,30
1026.1656481459534,1.6941807281595922,0,0,0,8481,1,1,31
1026.1370975343907,1.639622956105157,0,0,0,8481,1,1,32
1026.12971595969,1.639594316699945,0,0,0,8481,1,1,33
1026.171268602366,1.639622956105157,0,0,0,8481,1,1,34
1026.21036210615,1.676649931111961,0,0,35,8481,1,1,35
1026.1744255956146,1.6765009454284245,0,0,595,8481,1,1,36
1026.21036210615,1.631352550601293,0,0,1503,8481,1,1,37
1026.1818084105962,1.639622956105157,0,0,2583,8481,1,1,38
1026.0923867664726,1.639622956105157,0,0,3754,8481,1,1,39
1026.1370975343907,1.639622956105157,0,0,4999,8481,1,1,40
1026.2296784006298,1.639594316699945,0,0,6251,8481,1,1,41
1026.21036210615,1.6397400226004766,0,0,7526,8481,1,1,42
1026.226519395075,1.639622956105157,0,0,7990,8481,1,1,43
1026.1998210861154,1.684811914981079,0,0,8006,8481,1,1,44
1026.1923501668903,1.6600870611052807,0,0,7990,8481,1,1,45
1026.171268602366,1.6600870611052807,0,0,8006,8481,1,1,46
1026.21036210615,1.7047364734507229,0,0,7990,8481,1,1,47
1026.2191353398498,1.694030184704375,0,0,8006,8481,1,1,48
1026.2656186836005,1.7047364734507229,0,0,7990,8481,1,1,49
1026.2656186836005,1.6941807281595922,0,0,8006,8481,1,1,50
1026.2371479479734,1.6493360618149864,0,0,7990,8481,1,1,51
1026.1744255956146,1.639594316699945,0,0,8006,8481,1,1,52
1026.2656186836005,1.6397400226004766,0,0,7990,8481,1,1,53
1026.2924032090882,1.6397113770605083,0,0,8006,8481,1,1,54
1026.2638451923808,1.6765009454284245,0,0,7990,8481,1,1,55
1026.2924032090882,1.676620640772058,0,0,8006,8481,1,1,56
1026.1818084105962,1.6312360829155028,0,0,7990,8481,1,1,57
1026.2476902727592,1.676620640772058,0,0,8006,8481,1,1,58
1026.2029774447485,1.6397113770605083,0,0,7990,8481,1,1,59
1026.2550761746415,1.684811914981079,0,0,8006,8481,1,1,60
1026.2476902727592,1.6847824820548931,0,0,7990,8481,1,1,61
1026.163884023454,1.684662204030614,0,0,8006,8481,1,1,62
1026.21036210615,1.6397400226004766,0,0,7990,8481,1,1,63
1026.226519395075,1.6846916306534168,0,0,7500,8481,1,1,64
1026.1744255956146,1.6600580642521607,0,0,5951,8481,1,1,65
1026.2550761746415,1.7047364734507229,0,0,4394,8481,1,1,66
1026.21036210615,1.7047364734507229,0,0,2870,8481,1,1,67
1026.1191739282162,1.694030184704375,0,0,1449,8481,1,1,68
1026.2029774447485,1.6941511315643436,0,0,237,8481,1,1,69
1026.1998210861154,1.6941807281595922,0,0,0,8481,1,1,70
1026.21036210615,1.6493648754969188,0,0,0,8481,1,1,71
1026.1265572669145,1.649247121851331,0,0,0,8481,1,1,72
1026.21036210615,1.6397400226004766,0,0,0,8481,1,1,73
1026.2209050744627,1.6397400226004766,0,0,0,8481,1,1,74
1026.192434660617,1.676620640772058,0,0,0,8481,1,1,75
1026.1744255956146,1.6765009454284245,0,0,0,8481,1,1,76
1026.1818084105962,1.6765302294954805,0,0,0,8481,1,1,77
1026.12971595969,1.639594316699945,0,0,0,8481,1,1,78
1026.21036210615,1.676649931111961,0,0,0,8481,1,1,79
1026.2029774447485,1.6847824820548931,0,0,0,8481,1,1,80
1026.0923867664726,1.6846916306534168,0,0,0,8481,1,1,81
1026.2029774447485,1.6847824820548931,0,0,0,8481,1,1,82
1026.1370975343907,1.639622956105157,0,0,0,8481,1,1,83
1026.1477214815538,1.6847824820548931,0,0,0,8481,1,1,84
1026.21036210615,1.6602055887054497,0,0,55,8481,1,1,85
1026.1998210861154,1.7047364734507229,0,0,649,8481,1,1,86
1026.2836368274573,1.704858197119288,0,0,1555,8481,1,1,87
1026.2582345456535,1.6941511315643436,0,0,2622,8481,1,1,88
1026.2191353398498,1.6600580642521607,0,0,3770,8481,1,1,89
1026.2836368274573,1.6494826454552518,0,0,4988,8481,1,1,90
1026.1191739282162,1.649218314340164,0,0,6224,8481,1,1,91
1026.2997903514142,1.6493648754969188,0,0,7500,8481,1,1,92
1026.2476902727592,1.6397113770605083,0,0,7990,8481,1,1,93
1026.2550761746415,1.6397400226004766,0,0,8006,8481,1,1,94
1026.2550761746415,1.631352550601293,0,0,7990,8481,1,1,95
1026.2997903514142,1.676649931111961,0,0,8006,8481,1,1,96
1026.355046226822,1.676649931111961,0,0,7990,8481,1,1,97
1026.2476902727592,1.6397113770605083,0,0,8006,8481,1,1,98
1026.1818084105962,1.6765302294954805,0,0,7990,8481,1,1,99
1026.3103324010583,1.631352550601293,0,0,8006,8481,1,1,100
1026.2550761746415,1.684811914981079,0,0,7990,8481,1,1,101
1026.1744255956146,1.684662204030614,0,0,8006,8481,1,1,102
1026.2550761746415,1.684811914981079,0,0,7990,8481,1,1,103
1026.2029774447485,1.6847824820548931,0,0,8006,8481,1,1,104
1026.1744255956146,1.7045849920209781,0,0,7990,8481,1,1,105
1026.192434660617,1.6941511315643436,0,0,8006,8481,1,1,106
1026.2550761746415,1.7047364734507229,0,0,7990,8481,1,1,107
1026.2371479479734,1.6941511315643436,0,0,8006,8481,1,1,108
1026.2997903514142,1.6493648754969188,0,0,7990,8481,1,1,109
1026.2476902727592,1.6493360618149864,0,0,8006,8481,1,1,110
1026.2656186836005,1.6493648754969188,0,0,7990,8481,1,1,111
1026.2029774447485,1.6941511315643436,0,0,8006,8481,1,1,112
1026.2867945635962,1.639828453636898,0,0,7990,8481,1,1,113
1026.2656186836005,1.6397400226004766,0,0,8006,8481,1,1,114
1026.237060692087,1.6312360829155028,0,0,7983,8481,1,1,115
1026.1818084105962,1.6765302294954805,0,0,7134,8481,1,1,116
1026.1744255956146,1.6765009454284245,0,0,5628,8481,1,1,117
1026.1955897587122,1.6765913429094803,0,0,4163,8481,1,1,118
1026.1818084105962,1.6312360829155028,0,0,2755,8481,1,1,119
1026.2656186836005,1.6397400226004766,0,0,1466,8481,1,1,120
1026.2550761746415,1.676649931111961,0,0,334,8481,1,1,121
1026.2029774447485,1.6847824820548931,0,0,0,8481,1,1,122
1026.1998210861154,1.6397400226004766,0,0,0,8481,1,1,123
1026.1656481459534,1.6493648754969188,0,0,0,8481,1,1,124
1026.2029774447485,1.704706692451228,0,0,0,8481,1,1,125
1026.1998210861154,1.6602055887054497,0,0,0,8481,1,1,126
1026.2371479479734,1.704706692451228,0,0,0,8481,1,1,127
1026.171268602366,1.6940597749611888,0,0,0,8481,1,1,128
1026.2550761746415,1.6493648754969188,0,0,0,8481,1,1,129
1026.1191739282162,1.649218314340164,0,0,0,8481,1,1,130
1026.0744639412642,1.649218314340164,0,0,0,8481,1,1,131
1026.1551066666018,1.6941807281595922,0,0,0,8481,1,1,132
1026.1370975343907,1.6846916306534168,0,0,0,8481,1,1,133
1026.192434660617,1.6847824820548931,0,0,0,8481,1,1,134
1026.1818084105962,1.6312360829155028,0,0,0,8481,1,1,135
1026.1818084105962,1.6765302294954805,0,0,312,8481,1,1,136
1026.1656481459534,1.676649931111961,0,0,1088,8481,1,1,137
1026.12971595969,1.6765009454284245,0,0,2054,8481,1,1,138
1026.1191739282162,1.639594316699945,0,0,3129,8481,1,1,139
1026.2476902727592,1.6397113770605083,0,0,4291,8481,1,1,140
1026.213522177064,1.6397113770605083,0,0,5489,8481,1,1,141
1026.21036210615,1.6397400226004766,0,0,6741,8481,1,1,142
1026.2476902727592,1.6493360618149864,0,0,7830,8481,1,1,143
1026.1656481459534,1.6493648754969188,0,0,8006,8481,1,1,144
1026.2550761746415,1.6493648754969188,0,0,7990,8481,1,1,145
1026.2476902727592,1.704706692451228,0,0,8006,8481,1,1,146
1026.2550761746415,1.7047364734507229,0,0,7990,8481,1,1,147
1026.2476902727592,1.6493360618149864,0,0,8006,8481,1,1,148
1026.2550761746415,1.6493648754969188,0,0,7990,8481,1,1,149
1026.208594226963,1.649218314340164,0,0,8006,8481,1,1,150
1026.226519395075,1.6940597749611888,0,0,7990,8481,1,1,151
1026.2476902727592,1.6941511315643436,0,0,8006,8481,1,1,152
1026.3388973504052,1.6849322159720692,0,0,7990,8481,1,1,153
1026.2997903514142,1.684811914981079,0,0,8006,8481,1,1,154
1026.2550761746415,1.631352550601293,0,0,7990,8481,1,1,155
1026.3103324010583,1.631352550601293,0,0,8006,8481,1,1,156
1026.2762490783794,1.6767403526965297,0,0,7990,8481,1,1,157
1026.3388973504052,1.6767696493110447,0,0,8006,8481,1,1,158
1026.21036210615,1.631352550601293,0,0,7990,8481,1,1,159
1026.3103324010583,1.631352550601293,0,0,8006,8481,1,1,160
1026.3283540886775,1.6398571053133486,0,0,7990,8481,1,1,161
1026.3103324010583,1.684811914981079,0,0,8006,8481,1,1,162
1026.226519395075,1.639622956105157,0,0,7990,8481,1,1,163
1026.21036210615,1.6941807281595922,0,0,8006,8481,1,1,164
1026.2656186836005,1.6602055887054497,0,0,7990,8481,1,1,165
1026.2445356138855,1.7047364734507229,0,0,7537,8481,1,1,166
1026.2476902727592,1.704706692451228,0,0,6060,8481,1,1,167
1026.21036210615,1.6941807281595922,0,0,4583,8481,1,1,168
1026.21036210615,1.6493648754969188,0,0,3151,8481,1,1,169
1026.2656186836005,1.6493648754969188,0,0,1836,8481,1,1,170
1026.21036210615,1.6493648754969188,0,0,647,8481,1,1,171
1026.192434660617,1.6941511315643436,0,0,6,8481,1,1,172
1026.2836368274573,1.6849322159720692,0,0,0,8481,1,1,173
1026.2476902727592,1.6847824820548931,0,0,0,8481,1,1,174
1026.192434660617,1.676620640772058,0,0,0,8481,1,1,175
1026.2550761746415,1.631352550601293,0,0,0,8481,1,1,176
1026.21036210615,1.676649931111961,0,0,0,8481,1,1,177
1026.21036210615,1.684811914981079,0,0,0,8481,1,1,178
1026.1551066666018,1.676649931111961,0,0,0,8481,1,1,179
1026.2550761746415,1.6397400226004766,0,0,0,8481,1,1,180
1026.21036210615,1.6397400226004766,0,0,0,8481,1,1,181
1026.2029774447485,1.6397113770605083,0,0,0,8481,1,1,182
1026.1656481459534,1.684811914981079,0,0,0,8481,1,1,183
1026.1191739282162,1.639594316699945,0,0,0,8481,1,1,184
1026.2209050744627,1.6602055887054497,0,0,357,8481,1,1,185
1026.1998210861154,1.7047364734507229,0,0,1116,8481,1,1,186
1026.2550761746415,1.7047364734507229,0,0,2048,8481,1,1,187
1026.2209050744627,1.6493648754969188,0,0,3104,8481,1,1,188
1026.2445356138855,1.6493648754969188,0,0,4222,8481,1,1,189
1026.2209050744627,1.6941807281595922,0,0,5406,8481,1,1,190
1026.2371479479734,1.6941511315643436,0,0,6602,8481,1,1,191
1026.2836368274573,1.6943016981139836,0,0,7762,8481,1,1,192
1026.2191353398498,1.694030184704375,0,0,7990,8481,1,1,193
1026.2836368274573,1.6849322159720692,0,0,8006,8481,1,1,194
1026.3730714581861,1.6767696493110447,0,0,7990,8481,1,1,195
1026.2867945635962,1.631440529302081,0,0,8006,8481,1,1,196
1026.3029470226002,1.676620640772058,0,0,7990,8481,1,1,197
1026.2191353398498,1.6765009454284245,0,0,8006,8481,1,1,198
1026.2836368274573,1.6767696493110447,0,0,7990,8481,1,1,199
1026.2656186836005,1.631352550601293,0,0,8006,8481,1,1,200
1026.2656186836005,1.6397400226004766,0,0,7990,8481,1,1,201
1026.2550761746415,1.6397400226004766,0,0,8006,8481,1,1,202
1026.2029774447485,1.6847824820548931,0,0,7990,8481,1,1,203
1026.2445356138855,1.684811914981079,0,0,8006,8481,1,1,204
1026.226519395075,1.7046147666425464,0,0,7990,8481,1,1,205
1026.2371479479734,1.704706692451228,0,0,8006,8481,1,1,206
1026.2656186836005,1.7047364734507229,0,0,7990,8481,1,1,207
1026.2550761746415,1.6493648754969188,0,0,8006,8481,1,1,208
1026.3283540886775,1.6494826454552518,0,0,7990,8481,1,1,209
1026.2836368274573,1.6943016981139836,0,0,8006,8481,1,1,210
1026.2445356138855,1.6941807281595922,0,0,7990,8481,1,1,211
1026.3388973504052,1.6943016981139836,0,0,8006,8481,1,1,212
1026.2476902727592,1.6941511315643436,0,0,7990,8481,1,1,213
1026.3283540886775,1.6849322159720692,0,0,8006,8481,1,1,214
1026.3283540886775,1.6767696493110447,0,0,7603,8481,1,1,215
1026.213522177064,1.6313240515867868,0,0,6112,8481,1,1,216
1026.192434660617,1.676620640772058,0,0,4515,8481,1,1,217
1026.2836368274573,1.6849322159720692,0,0,2981,8481,1,1,218
1026.1191739282162,1.684662204030614,0,0,1528,8481,1,1,219
1026.1656481459534,1.6397400226004766,0,0,279,8481,1,1,220
1026.1818084105962,1.639622956105157,0,0,0,8481,1,1,221
1026.21036210615,1.6397400226004766,0,0,0,8481,1,1,222
1026.2209050744627,1.6397400226004766,0,0,0,8481,1,1,223
1026.1370975343907,1.649247121851331,0,0,0,8481,1,1,224
1026.2209050744627,1.7047364734507229,0,0,0,8481,1,1,225
1026.15826472507,1.704706692451228,0,0,0,8481,1,1,226
1026.1818084105962,1.7046147666425464,0,0,0,8481,1,1,227
1026.21036210615,1.6493648754969188,0,0,0,8481,1,1,228
1026.2941805485718,1.6943016981139836,0,0,0,8481,1,1,229
1026.1818084105962,1.6940597749611888,0,0,0,8481,1,1,230
1026.2550761746415,1.6941807281595922,0,0,0,8481,1,1,231
1026.2550761746415,1.6941807281595922,0,0,0,8481,1,1,232
1026.21036210615,1.6941807281595922,0,0,0,8481,1,1,233
1026.3015635074594,1.6849616476414215,0,0,0,8481,1,1,234
1026.2463031572477,1.6767989384002027,0,0,0,8481,1,1,235
1026.213522177064,1.6313240515867868,0,0,185,8481,1,1,236
1026.2550761746415,1.631352550601293,0,0,967,8481,1,1,237
1026.2550761746415,1.684811914981079,0,0,1992,8481,1,1,238
1026.2029774447485,1.6847824820548931,0,0,3149,8481,1,1,239
1026.2389196745403,1.6849322159720692,0,0,4408,8481,1,1,240
1026.2656186836005,1.684811914981079,0,0,5703,8481,1,1,241
1026.2029774447485,1.6847824820548931,0,0,7045,8481,1,1,242
1026.2997903514142,1.6397400226004766,0,0,7958,8481,1,1,243
1026.2836368274573,1.6943016981139836,0,0,8006,8481,1,1,244
1026.2656186836005,1.7047364734507229,0,0,7990,8481,1,1,245
1026.2550761746415,1.7047364734507229,0,0,8006,8481,1,1,246
1026.2550761746415,1.6602055887054497,0,0,7990,8481,1,1,247
1026.2550761746415,1.6493648754969188,0,0,8006,8481,1,1,248
1026.2656186836005,1.6941807281595922,0,0,7990,8481,1,1,249
1026.2476902727592,1.6941511315643436,0,0,8006,8481,1,1,250
1026.2997903514142,1.6941807281595922,0,0,7990,8481,1,1,251
1026.2997903514142,1.6941807281595922,0,0,8006,8481,1,1,252
1026.2941805485718,1.6398571053133486,0,0,7990,8481,1,1,253
1026.3388973504052,1.6398571053133486,0,0,8006,8481,1,1,254
1026.2550761746415,1.676649931111961,0,0,7990,8481,1,1,255
1026.3283540886775,1.6314690344216807,0,0,8006,8481,1,1,0
1026.3209650989184,1.631440529302081,0,0,7990,8481,1,1,1
1026.3283540886775,1.6767696493110447,0,0,8006,8481,1,1,2
1026.2209050744627,1.676649931111961,0,0,7990,8481,1,1,3
1026.2656186836005,1.684811914981079,0,0,8006,8481,1,1,4
1026.2656186836005,1.684811914981079,0,0,7990,8481,1,1,5
1026.3029470226002,1.6397113770605083,0,0,8006,8481,1,1,6
1026.2476902727592,1.6397113770605083,0,0,7990,8481,1,1,7
1026.192434660617,1.6941511315643436,0,0,8006,8481,1,1,8
1026.2476902727592,1.704706692451228,0,0,7990,8481,1,1,9
1026.21036210615,1.7047364734507229,0,0,7302,8481,1,1,10
1026.1744255956146,1.6600580642521607,0,0,5648,8481,1,1,11
1026.2550761746415,1.6493648754969188,0,0,4003,8481,1,1,12
1026.2836368274573,1.704858197119288,0,0,2395,8481,1,1,13
1026.2836368274573,1.6943016981139836,0,0,898,8481,1,1,14
1026.21036210615,1.6941807281595922,0,0,14,8481,1,1,15
1026.15826472507,1.6493360618149864,0,0,0,8481,1,1,16
1026.192434660617,1.6493360618149864,0,0,0,8481,1,1,17
1026.192434660617,1.6397113770605083,0,0,0,8481,1,1,18
1026.2550761746415,1.676649931111961,0,0,0,8481,1,1,19
1026.2209050744627,1.631352550601293,0,0,0,8481,1,1,20
1026.21036210615,1.631352550601293,0,0,0,8481,1,1,21
1026.21036210615,1.676649931111961,0,0,0,8481,1,1,22
1026.1551066666018,1.676649931111961,0,0,0,8481,1,1,23
1026.1656481459534,1.684811914981079,0,0,0,8481,1,1,24
1026.2209050744627,1.684811914981079,0,0,0,8481,1,1,25
1026.1370975343907,1.6846916306534168,0,0,0,8481,1,1,26
1026.21036210615,1.684811914981079,0,0,0,8481,1,1,27
1026.1656481459534,1.6493648754969188,0,0,0,8481,1,1,28
1026.3283540886775,1.704858197119288,0,0,0,8481,1,1,29
1026.2029774447485,1.704706692451228,0,0,0,8481,1,1,30
1026.1998210861154,1.6602055887054497,0,0,0,8481,1,1,31
1026.2550761746415,1.6941807281595922,0,0,0,8481,1,1,32
1026.3283540886775,1.704858197119288,0,0,178,8481,1,1,33
1026.2029774447485,1.6941511315643436,0,0,997,8481,1,1,34
1026.2836368274573,1.6494826454552518,0,0,2064,8481,1,1,35
1026.2445356138855,1.6397400226004766,0,0,3277,8481,1,1,36
1026.3283540886775,1.6398571053133486,0,0,4556,8481,1,1,37
1026.2550761746415,1.6397400226004766,0,0,5896,8481,1,1,38
1026.2476902727592,1.676620640772058,0,0,7230,8481,1,1,39
1026.2550761746415,1.676649931111961,0,0,8003,8481,1,1,40
1026.3103324010583,1.631352550601293,0,0,7990,8481,1,1,41
1026.2445356138855,1.631352550601293,0,0,8006,8481,1,1,42
1026.2657055414854,1.6767403526965297,0,0,7990,8481,1,1,43
1026.2941805485718,1.6849322159720692,0,0,8006,8481,1,1,44
1026.3283540886775,1.6849322159720692,0,0,7990,8481,1,1,45
1026.2997903514142,1.684811914981079,0,0,8006,8481,1,1,46
1026.2997903514142,1.684811914981079,0,0,7990,8481,1,1,47
1026.3209650989184,1.6942720951785166,0,0,8006,8481,1,1,48
1026.2550761746415,1.7047364734507229,0,0,7990,8481,1,1,49
1026.2997903514142,1.6602055887054497,0,0,8006,8481,1,1,50
1026.2656186836005,1.7047364734507229,0,0,7990,8481,1,1,51
1026.2476902727592,1.6941511315643436,0,0,8006,8481,1,1,52
1026.2029774447485,1.6941511315643436,0,0,7990,8481,1,1,53
1026.2997903514142,1.6941807281595922,0,0,8006,8481,1,1,54
1026.1818084105962,1.649247121851331,0,0,7990,8481,1,1,55
1026.1744255956146,1.639594316699945,0,0,8006,8481,1,1,56
1026.2924032090882,1.6397113770605083,0,0,7990,8481,1,1,57
1026.2191353398498,1.639594316699945,0,0,8006,8481,1,1,58
1026.2997903514142,1.631352550601293,0,0,7990,8481,1,1,59
1026.2656186836005,1.676649931111961,0,0,8006,8481,1,1,60
1026.2997903514142,1.631352550601293,0,0,7990,8481,1,1,61
1026.2550761746415,1.631352550601293,0,0,7756,8481,1,1,62
1026.2209050744627,1.676649931111961,0,0,6296,8481,1,1,63
1026.2656186836005,1.684811914981079,0,0,4686,8481,1,1,64
1026.3283540886775,1.6849322159720692,0,0,3094,8481,1,1,65
1026.21036210615,1.684811914981079,0,0,1600,8481,1,1,66
1026.2836368274573,1.6943016981139836,0,0,290,8481,1,1,67
1026.163884023454,1.694030184704375,0,0,0,8481,1,1,68
1026.21036210615,1.7047364734507229,0,0,0,8481,1,1,69
1026.21036210615,1.7047364734507229,0,0,0,8481,1,1,70
1026.2029774447485,1.660176585641006,0,0,0,8481,1,1,71
1026.21036210615,1.6941807281595922,0,0,0,8481,1,1,72
1026.2550761746415,1.6941807281595922,0,0,0,8481,1,1,73
1026.21036210615,1.6941807281595922,0,0,0,8481,1,1,74
1026.1656481459534,1.6493648754969188,0,0,0,8481,1,1,75
1026.192434660617,1.6493360618149864,0,0,0,8481,1,1,76
1026.2209050744627,1.6397400226004766,0,0,0,8481,1,1,77
1026.2209050744627,1.6397400226004766,0,0,0,8481,1,1,78
1026.2550761746415,1.631352550601293,0,0,0,8481,1,1,79
1026.3209650989184,1.6767403526965297,0,0,0,8481,1,1,80
1026.2836368274573,1.6314690344216807,0,0,0,8481,1,1,81
1026.21036210615,1.6397400226004766,0,0,0,8481,1,1,82
1026.21036210615,1.676649931111961,0,0,0,8481,1,1,83
1026.21036210615,1.684811914981079,0,0,0,8481,1,1,84
1026.2476902727592,1.6847824820548931,0,0,351,8481,1,1,85
1026.21036210615,1.684811914981079,0,0,1262,8481,1,1,86
1026.2550761746415,1.684811914981079,0,0,2374,8481,1,1,87
1026.2315331661805,1.684902776740726,0,0,3614,8481,1,1,88
1026.2550761746415,1.7047364734507229,0,0,4902,8481,1,1,89
1026.163884023454,1.6600580642521607,0,0,6236,8481,1,1,90
1026.1998210861154,1.7047364734507229,0,0,7534,8481,1,1,91
1026.2445356138855,1.6941807281595922,0,0,8006,8481,1,1,92
1026.3071744681004,1.694210317152207,0,0,7990,8481,1,1,93
1026.2550761746415,1.6493648754969188,0,0,8006,8481,1,1,94
1026.2924032090882,1.6493360618149864,0,0,7990,8481,1,1,95
1026.21036210615,1.6493648754969188,0,0,8006,8481,1,1,96
1026.2924032090882,1.6493360618149864,0,0,7990,8481,1,1,97
1026.3283540886775,1.6398571053133486,0,0,8006,8481,1,1,98
1026.1744255956146,1.6312075900043728,0,0,7990,8481,1,1,99
1026.2656186836005,1.676649931111961,0,0,8006,8481,1,1,100
1026.2296784006298,1.6312075900043728,0,0,7990,8481,1,1,101
1026.2997903514142,1.6397400226004766,0,0,8006,8481,1,1,102
1026.21036210615,1.676649931111961,0,0,7990,8481,1,1,103
1026.3283540886775,1.6849322159720692,0,0,8006,8481,1,1,104
1026.2476902727592,1.6847824820548931,0,0,7990,8481,1,1,105
1026.2476902727592,1.6847824820548931,0,0,8006,8481,1,1,106
1026.2624590511437,1.684841340346674,0,0,7990,8481,1,1,107
1026.2445356138855,1.6941807281595922,0,0,8006,8481,1,1,108
1026.2656186836005,1.7047364734507229,0,0,7990,8481,1,1,109
1026.2550761746415,1.7047364734507229,0,0,8006,8481,1,1,110
1026.2550761746415,1.7047364734507229,0,0,7990,8481,1,1,111
1026.2476902727592,1.6941511315643436,0,0,8006,8481,1,1,112
1026.2997903514142,1.6493648754969188,0,0,7990,8481,1,1,113
1026.21036210615,1.6493648754969188,0,0,7329,8481,1,1,114
1026.2762490783794,1.6494538256008175,0,0,5696,8481,1,1,115
1026.2836368274573,1.6398571053133486,0,0,4077,8481,1,1,116
1026.2836368274573,1.6398571053133486,0,0,2504,8481,1,1,117
1026.2910215506229,1.6398857496301056,0,0,1051,8481,1,1,118
1026.2389196745403,1.6314690344216807,0,0,52,8481,1,1,119
1026.2476902727592,1.676620640772058,0,0,0,8481,1,1,120
1026.21036210615,1.631352550601293,0,0,0,8481,1,1,121
1026.228377442493,1.6398571053133486,0,0,0,8481,1,1,122
1026.2762490783794,1.631440529302081,0,0,0,8481,1,1,123
1026.2476902727592,1.6847824820548931,0,0,0,8481,1,1,124
1026.2209050744627,1.684811914981079,0,0,0,8481,1,1,125
1026.2029774447485,1.6847824820548931,0,0,0,8481,1,1,126
1026.1656481459534,1.684811914981079,0,0,0,8481,1,1,127
1026.21036210615,1.6941807281595922,0,0,0,8481,1,1,128
1026.2209050744627,1.7047364734507229,0,0,0,8481,1,1,129
1026.1656481459534,1.7047364734507229,0,0,0,8481,1,1,130
1026.21036210615,1.7047364734507229,0,0,0,8481,1,1,131
1026.2910215506229,1.6943312934454098,0,0,0,8481,1,1,132
1026.1998210861154,1.6493648754969188,0,0,0,8481,1,1,133
1026.2550761746415,1.6493648754969188,0,0,71,8481,1,1,134
1026.21036210615,1.6941807281595922,0,0,735,8481,1,1,135
1026.21036210615,1.6941807281595922,0,0,1727,8481,1,1,136
1026.2550761746415,1.684811914981079,0,0,2873,8481,1,1,137
1026.2029774447485,1.6847824820548931,0,0,4124,8481,1,1,138
1026.192434660617,1.6313240515867868,0,0,5417,8481,1,1,139
1026.226519395075,1.6765302294954805,0,0,6770,8481,1,1,140
1026.2550761746415,1.676649931111961,0,0,7877,8481,1,1,141
1026.2191353398498,1.639594316699945,0,0,8006,8481,1,1,142
1026.2550761746415,1.684811914981079,0,0,7990,8481,1,1,143
1026.2550761746415,1.6397400226004766,0,0,8006,8481,1,1,144
1026.2476902727592,1.6397113770605083,0,0,7990,8481,1,1,145
1026.2582345456535,1.6847824820548931,0,0,8006,8481,1,1,146
1026.226519395075,1.6940597749611888,0,0,7990,8481,1,1,147
1026.2476902727592,1.6941511315643436,0,0,8006,8481,1,1,148
1026.2550761746415,1.6602055887054497,0,0,7990,8481,1,1,149
1026.2997903514142,1.7047364734507229,0,0,8006,8481,1,1,150
1026.2924032090882,1.704706692451228,0,0,7990,8481,1,1,151
1026.2924032090882,1.6493360618149864,0,0,8006,8481,1,1,152
1026.2997903514142,1.6493648754969188,0,0,7990,8481,1,1,153
1026.2924032090882,1.6493360618149864,0,0,8006,8481,1,1,154
1026.2997903514142,1.6941807281595922,0,0,7990,8481,1,1,155
1026.2029774447485,1.6847824820548931,0,0,8006,8481,1,1,156
1026.226519395075,1.6846916306534168,0,0,7990,8481,1,1,157
1026.2191353398498,1.639594316699945,0,0,8006,8481,1,1,158
1026.2712304878132,1.6312360829155028,0,0,7990,8481,1,1,159
1026.2924032090882,1.6313240515867868,0,0,8006,8481,1,1,160
1026.2997903514142,1.676649931111961,0,0,7990,8481,1,1,161
1026.1818084105962,1.6765302294954805,0,0,8006,8481,1,1,162
1026.2476902727592,1.6397113770605083,0,0,7990,8481,1,1,163
1026.2656186836005,1.6397400226004766,0,0,7557,8481,1,1,164
1026.2209050744627,1.684811914981079,0,0,6009,8481,1,1,165
1026.2209050744627,1.684811914981079,0,0,4433,8481,1,1,166
1026.21036210615,1.684811914981079,0,0,2893,8481,1,1,167
1026.192434660617,1.6847824820548931,0,0,1469,8481,1,1,168
1026.2029774447485,1.660176585641006,0,0,255,8481,1,1,169
1026.1477214815538,1.660176585641006,0,0,0,8481,1,1,170
1026.192434660617,1.704706692451228,0,0,0,8481,1,1,171
1026.1818084105962,1.649247121851331,0,0,0,8481,1,1,172
1026.2029774447485,1.660176585641006,0,0,0,8481,1,1,173
1026.2371479479734,1.6493360618149864,0,0,0,8481,1,1,174
1026.21036210615,1.6941807281595922,0,0,0,8481,1,1,175
1026.2445356138855,1.6941807281595922,0,0,0,8481,1,1,176
1026.12971595969,1.684662204030614,0,0,0,8481,1,1,177
1026.163884023454,1.684662204030614,0,0,0,8481,1,1,178
1026.192434660617,1.6313240515867868,0,0,0,8481,1,1,179
1026.2476902727592,1.6313240515867868,0,0,0,8481,1,1,180
1026.2550761746415,1.676649931111961,0,0,0,8481,1,1,181
1026.2029774447485,1.6847824820548931,0,0,0,8481,1,1,182
1026.1477214815538,1.6313240515867868,0,0,0,8481,1,1,183
1026.2029774447485,1.6397113770605083,0,0,15,8481,1,1,184
1026.1477214815538,1.6397113770605083,0,0,510,8481,1,1,185
1026.12971595969,1.639594316699945,0,0,1400,8481,1,1,186
1026.1265572669145,1.639622956105157,0,0,2463,8481,1,1,187
1026.2029774447485,1.6397113770605083,0,0,3643,8481,1,1,188
1026.1818084105962,1.6600870611052807,0,0,4876,8481,1,1,189
1026.163884023454,1.7045849920209781,0,0,6162,8481,1,1,190
1026.1476397500057,1.6600870611052807,0,0,7435,8481,1,1,191
1026.2476902727592,1.6493360618149864,0,0,8006,8481,1,1,192
1026.237060692087,1.649247121851331,0,0,7990,8481,1,1,193
1026.1818084105962,1.6940597749611888,0,0,8006,8481,1,1,194
1026.2550761746415,1.6941807281595922,0,0,7990,8481,1,1,195
1026.2550761746415,1.6941807281595922,0,0,8006,8481,1,1,196
1026.2656186836005,1.684811914981079,0,0,7990,8481,1,1,197
1026.2191353398498,1.684662204030614,0,0,8006,8481,1,1,198
1026.226519395075,1.6765302294954805,0,0,7990,8481,1,1,199
1026.1818084105962,1.6312360829155028,0,0,8006,8481,1,1,200
1026.1744255956146,1.6765009454284245,0,0,7990,8481,1,1,201
1026.226519395075,1.6765302294954805,0,0,8006,8481,1,1,202
1026.21036210615,1.676649931111961,0,0,7990,8481,1,1,203
1026.1744255956146,1.639594316699945,0,0,8006,8481,1,1,204
1026.1818084105962,1.639622956105157,0,0,7990,8481,1,1,205
1026.2656186836005,1.6397400226004766,0,0,8006,8481,1,1,206
1026.1818084105962,1.6846916306534168,0,0,7990,8481,1,1,207
1026.2550761746415,1.6397400226004766,0,0,8006,8481,1,1,208
1026.2550761746415,1.6493648754969188,0,0,7990,8481,1,1,209
1026.2191353398498,1.7045849920209781,0,0,8006,8481,1,1,210
1026.21036210615,1.7047364734507229,0,0,7990,8481,1,1,211
1026.2550761746415,1.6493648754969188,0,0,8006,8481,1,1,212
1026.2191353398498,1.649218314340164,0,0,7821,8481,1,1,213
1026.2550761746415,1.6941807281595922,0,0,6536,8481,1,1,214
1026.21036210615,1.6941807281595922,0,0,5005,8481,1,1,215
1026.1923501668903,1.6940597749611888,0,0,3533,8481,1,1,216
1026.237060692087,1.6846916306534168,0,0,2127,8481,1,1,217
1026.1370975343907,1.6846916306534168,0,0,846,8481,1,1,218
1026.12971595969,1.6765009454284245,0,0,28,8481,1,1,219
1026.2209050744627,1.631352550601293,0,0,0,8481,1,1,220
1026.21036210615,1.676649931111961,0,0,0,8481,1,1,221
1026.192434660617,1.6847824820548931,0,0,0,8481,1,1,222
1026.1656481459534,1.676649931111961,0,0,0,8481,1,1,223
1026.2209050744627,1.6397400226004766,0,0,0,8481,1,1,224
1026.0906302458054,1.639477272551949,0,0,0,8481,1,1,225
1026.056464621164,1.639477272551949,0,0,0,8481,1,1,226
1026.056464621164,1.639477272551949,0,0,0,8481,1,1,227
1026.1370975343907,1.639622956105157,0,0,0,8481,1,1,228
1026.06384311014,1.6599685499217756,0,0,0,8481,1,1,229
1026.0639233986194,1.7045849920209781,0,0,0,8481,1,1,230
1026.1191739282162,1.6600580642521607,0,0,0,8481,1,1,231
1026.12971595969,1.649218314340164,0,0,0,8481,1,1,232
1026.2209050744627,1.6941807281595922,0,0,0,8481,1,1,233
1026.1265572669145,1.6940597749611888,0,0,263,8481,1,1,234
1026.0459233422446,1.6939092545952448,0,0,1044,8481,1,1,235
1026.1370975343907,1.6940597749611888,0,0,2030,8481,1,1,236
1026.171268602366,1.6940597749611888,0,0,3130,8481,1,1,237
1026.056464621164,1.6845419426645412,0,0,4322,8481,1,1,238
1026.1744255956146,1.6765009454284245,0,0,5547,8481,1,1,239
1026.145877618028,1.631091144551597,0,0,6824,8481,1,1,240
1026.1744255956146,1.6312075900043728,0,0,7876,8481,1,1,241
1026.1818084105962,1.6765302294954805,0,0,8006,8481,1,1,242
1026.1011710654448,1.6763812666622973,0,0,7990,8481,1,1,243
1026.237060692087,1.6846916306534168,0,0,8006,8481,1,1,244
1026.237060692087,1.639622956105157,0,0,7990,8481,1,1,245
1026.1744255956146,1.639594316699945,0,0,8006,8481,1,1,246
1026.145877618028,1.639477272551949,0,0,7990,8481,1,1,247
1026.1085507945013,1.64912938451521,0,0,8006,8481,1,1,248
1026.1818084105962,1.7046147666425464,0,0,7990,8481,1,1,249
1026.163884023454,1.7045849920209781,0,0,8006,8481,1,1,250
1026.1818084105962,1.6600870611052807,0,0,7990,8481,1,1,251
1026.3103324010583,1.6493648754969188,0,0,8006,8481,1,1,252
1026.2924032090882,1.6941511315643436,0,0,7990,8481,1,1,253
1026.2191353398498,1.694030184704375,0,0,8006,8481,1,1,254
1026.2476902727592,1.6941511315643436,0,0,7990,8481,1,1,255
1026.226519395075,1.6940597749611888,0,0,8006,8481,1,1,0
1026.237060692087,1.6846916306534168,0,0,7990,8481,1,1,1
1026.1818084105962,1.6940597749611888,0,0,8006,8481,1,1,2
1026.1427199904938,1.6764105444582709,0,0,7990,8481,1,1,3
1026.2191353398498,1.6312075900043728,0,0,8006,8481,1,1,4
1026.1265572669145,1.6312360829155028,0,0,7990,8481,1,1,5
1026.12971595969,1.6312075900043728,0,0,8006,8481,1,1,6
1026.1818084105962,1.6846916306534168,0,0,7941,8481,1,1,7
1026.1532585871287,1.639505905824131,0,0,6845,8481,1,1,8
1026.0906302458054,1.639477272551949,0,0,5259,8481,1,1,9
1026.06384311014,1.639505905824131,0,0,3713,8481,1,1,10
1026.1191739282162,1.649218314340164,0,0,2231,8481,1,1,11
1026.15826472507,1.6493360618149864,0,0,875,8481,1,1,12
1026.0850064320898,1.7045849920209781,0,0,25,8481,1,1,13
1026.1265572669145,1.7046147666425464,0,0,0,8481,1,1,14
1026.1191739282162,1.6600580642521607,0,0,0,8481,1,1,15
1026.1191739282162,1.694030184704375,0,0,0,8481,1,1,16
1026.1191739282162,1.7045849920209781,0,0,0,8481,1,1,17
1026.1191739282162,1.694030184704375,0,0,0,8481,1,1,18
1026.0923867664726,1.6940597749611888,0,0,0,8481,1,1,19
1026.1370975343907,1.6846916306534168,0,0,0,8481,1,1,20
1026.12971595969,1.694030184704375,0,0,0,8481,1,1,21
1026.0906302458054,1.6845419426645412,0,0,0,8481,1,1,22
1026.1370975343907,1.6765302294954805,0,0,0,8481,1,1,23
1026.1191739282162,1.6765009454284245,0,0,0,8481,1,1,24
1026.1849691157445,1.6312075900043728,0,0,0,8481,1,1,25
1026.163884023454,1.6765009454284245,0,0,0,8481,1,1,26
1026.176191573659,1.676649931111961,0,0,0,8481,1,1,27
1026.1191739282162,1.684662204030614,0,0,219,8481,1,1,28
1026.171268602366,1.6846916306534168,0,0,1014,8481,1,1,29
1026.1402599392081,1.639594316699945,0,0,2043,8481,1,1,30
1026.163884023454,1.639594316699945,0,0,3210,8481,1,1,31
1026.1191739282162,1.694030184704375,0,0,4489,8481,1,1,32
1026.2209050744627,1.7047364734507229,0,0,5811,8481,1,1,33
1026.1744255956146,1.7045849920209781,0,0,7189,8481,1,1,34
1026.226519395075,1.6600870611052807,0,0,7984,8481,1,1,35
1026.226519395075,1.6940597749611888,0,0,8006,8481,1,1,36
1026.3103324010583,1.7047364734507229,0,0,7990,8481,1,1,37
1026.2191353398498,1.694030184704375,0,0,8006,8481,1,1,38
1026.1744255956146,1.649218314340164,0,0,7990,8481,1,1,39
1026.237060692087,1.639622956105157,0,0,8006,8481,1,1,40
1026.1818084105962,1.639622956105157,0,0,7990,8481,1,1,41
1026.2191353398498,1.639594316699945,0,0,8006,8481,1,1,42
1026.1818084105962,1.6765302294954805,0,0,7990,8481,1,1,43
1026.1744255956146,1.6765009454284245,0,0,8006,8481,1,1,44
1026.163884023454,1.6312075900043728,0,0,7990,8481,1,1,45
1026.1085507945013,1.6311196313610683,0,0,8006,8481,1,1,46
1026.163884023454,1.684662204030614,0,0,7990,8481,1,1,47
1026.226519395075,1.6846916306534168,0,0,8006,8481,1,1,48
1026.1370975343907,1.639622956105157,0,0,7990,8481,1,1,49
1026.12971595969,1.684662204030614,0,0,8006,8481,1,1,50
1026.1744255956146,1.684662204030614,0,0,7990,8481,1,1,51
1026.21036210615,1.684811914981079,0,0,8006,8481,1,1,52
1026.1818084105962,1.7046147666425464,0,0,7990,8481,1,1,53
1026.1818084105962,1.6600870611052807,0,0,8006,8481,1,1,54
1026.1370975343907,1.6600870611052807,0,0,7990,8481,1,1,55
1026.1818084105962,1.649247121851331,0,0,8006,8481,1,1,56
1026.226519395075,1.6940597749611888,0,0,7990,8481,1,1,57
1026.1353372576302,1.6939092545952448,0,0,7985,8481,1,1,58
1026.1744255956146,1.694030184704375,0,0,6967,8481,1,1,59
1026.1191739282162,1.639594316699945,0,0,5411,8481,1,1,60
1026.163884023454,1.639594316699945,0,0,3859,8481,1,1,61
1026.1744255956146,1.639594316699945,0,0,2399,8481,1,1,62
1026.1744255956146,1.6765009454284245,0,0,1038,8481,1,1,63
1026.1085507945013,1.6764105444582709,0,0,68,8481,1,1,64
1026.12971595969,1.6312075900043728,0,0,0,8481,1,1,65
1026.1265572669145,1.6765302294954805,0,0,0,8481,1,1,66
1026.0923867664726,1.6765302294954805,0,0,0,8481,1,1,67
1026.21036210615,1.684811914981079,0,0,0,8481,1,1,68
1026.0744639412642,1.684662204030614,0,0,0,8481,1,1,69
1026.1370975343907,1.6846916306534168,0,0,0,8481,1,1,70
1026.1265572669145,1.6846916306534168,0,0,0,8481,1,1,71
1026.1551066666018,1.6941807281595922,0,0,0,8481,1,1,72
1026.15826472507,1.704706692451228,0,0,0,8481,1,1,73
1026.1477214815538,1.660176585641006,0,0,0,8481,1,1,74
1026.1191739282162,1.7045849920209781,0,0,0,8481,1,1,75
1026.1265572669145,1.6940597749611888,0,0,0,8481,1,1,76
1026.21036210615,1.6941807281595922,0,0,0,8481,1,1,77
1026.1191739282162,1.694030184704375,0,0,0,8481,1,1,78
1026.12971595969,1.649218314340164,0,0,15,8481,1,1,79
1026.1191739282162,1.649218314340164,0,0,514,8481,1,1,80
1026.0906302458054,1.639477272551949,0,0,1411,8481,1,1,81
1026.1744255956146,1.639594316699945,0,0,2497,8481,1,1,82
1026.1370975343907,1.6765302294954805,0,0,3679,8481,1,1,83
1026.1744255956146,1.6765009454284245,0,0,4939,8481,1,1,84
1026.145877618028,1.6763812666622973,0,0,6216,8481,1,1,85
1026.12971595969,1.6312075900043728,0,0,7521,8481,1,1,86
1026.1923501668903,1.6765302294954805,0,0,7990,8481,1,1,87
1026.1085507945013,1.6764105444582709,0,0,8006,8481,1,1,88
1026.1744255956146,1.684662204030614,0,0,7990,8481,1,1,89
1026.1744255956146,1.684662204030614,0,0,8006,8481,1,1,90
1026.163884023454,1.684662204030614,0,0,7990,8481,1,1,91
1026.1818084105962,1.6846916306534168,0,0,8006,8481,1,1,92
1026.1818084105962,1.7046147666425464,0,0,7990,8481,1,1,93
1026.171268602366,1.7046147666425464,0,0,8006,8481,1,1,94
1026.1923501668903,1.6600870611052807,0,0,7990,8481,1,1,95
1026.1818084105962,1.6940597749611888,0,0,8006,8481,1,1,96
1026.2191353398498,1.694030184704375,0,0,7990,8481,1,1,97
1026.1427199904938,1.64912938451521,0,0,8006,8481,1,1,98
1026.1532585871287,1.64912938451521,0,0,7990,8481,1,1,99
1026.2191353398498,1.649218314340164,0,0,8006,8481,1,1,100
1026.145877618028,1.639477272551949,0,0,7990,8481,1,1,101
1026.1744255956146,1.639594316699945,0,0,8006,8481,1,1,102
1026.1476397500057,1.6765302294954805,0,0,7990,8481,1,1,103
1026.215980046051,1.6765302294954805,0,0,8006,8481,1,1,104
1026.1818084105962,1.6312360829155028,0,0,7990,8481,1,1,105
1026.1532585871287,1.6311196313610683,0,0,8006,8481,1,1,106
1026.1818084105962,1.6765302294954805,0,0,7990,8481,1,1,107
1026.1923501668903,1.6846916306534168,0,0,8006,8481,1,1,108
1026.1744255956146,1.684662204030614,0,0,7589,8481,1,1,109
1026.226519395075,1.6846916306534168,0,0,6053,8481,1,1,110
1026.1085507945013,1.6845713629857337,0,0,4402,8481,1,1,111
1026.163884023454,1.694030184704375,0,0,2806,8481,1,1,112
1026.1370975343907,1.7046147666425464,0,0,1290,8481,1,1,113
1026.0459233422446,1.7044633084459342,0,0,122,8481,1,1,114
1026.0906302458054,1.7044633084459342,0,0,0,8481,1,1,115
1026.21036210615,1.6941807281595922,0,0,0,8481,1,1,116
1026.21036210615,1.6941807281595922,0,0,0,8481,1,1,117
1026.21036210615,1.6941807281595922,0,0,0,8481,1,1,118
1026.1477214815538,1.6493360618149864,0,0,0,8481,1,1,119
1026.163884023454,1.639594316699945,0,0,0,8481,1,1,120
1026.21036210615,1.6493648754969188,0,0,0,8481,1,1,121
1026.1818084105962,1.639622956105157,0,0,0,8481,1,1,122
1026.1191739282162,1.6312075900043728,0,0,0,8481,1,1,123
1026.1744255956146,1.6765009454284245,0,0,0,8481,1,1,124
1026.1191739282162,1.6765009454284245,0,0,0,8481,1,1,125
1026.1191739282162,1.6312075900043728,0,0,0,8481,1,1,126
1026.1265572669145,1.6312360829155028,0,0,0,8481,1,1,127
1026.171268602366,1.6846916306534168,0,0,0,8481,1,1,128
1026.192434660617,1.6847824820548931,0,0,0,8481,1,1,129
1026.1818084105962,1.6846916306534168,0,0,0,8481,1,1,130
1026.1370975343907,1.6846916306534168,0,0,17,8481,1,1,131
1026.1744255956146,1.694030184704375,0,0,551,8481,1,1,132
1026.171268602366,1.649247121851331,0,0,1500,8481,1,1,133
1026.1818084105962,1.6600870611052807,0,0,2632,8481,1,1,134
1026.163884023454,1.7045849920209781,0,0,3859,8481,1,1,135
1026.1370975343907,1.6940597749611888,0,0,5163,8481,1,1,136
1026.1818084105962,1.649247121851331,0,0,6478,8481,1,1,137
1026.1744255956146,1.649218314340164,0,0,7738,8481,1,1,138
1026.1849691157445,1.649218314340164,0,0,7990,8481,1,1,139
1026.2550761746415,1.6493648754969188,0,0,8006,8481,1,1,140
1026.2550761746415,1.6397400226004766,0,0,7990,8481,1,1,141
1026.2476902727592,1.6397113770605083,0,0,8006,8481,1,1,142
1026.226519395075,1.6312360829155028,0,0,7990,8481,1,1,143
1026.2924032090882,1.676620640772058,0,0,8006,8481,1,1,144
1026.226519395075,1.6765302294954805,0,0,7990,8481,1,1,145
1026.2371479479734,1.6313240515867868,0,0,8006,8481,1,1,146
1026.2997903514142,1.631352550601293,0,0,7990,8481,1,1,147
1026.2476902727592,1.6397113770605083,0,0,8006,8481,1,1,148
1026.1564199261811,1.6845419426645412,0,0,7990,8481,1,1,149
1026.226519395075,1.6846916306534168,0,0,8006,8481,1,1,150
1026.1744255956146,1.684662204030614,0,0,7990,8481,1,1,151
1026.237060692087,1.6940597749611888,0,0,8006,8481,1,1,152
1026.1818084105962,1.6600870611052807,0,0,7990,8481,1,1,153
1026.163884023454,1.6600580642521607,0,0,8006,8481,1,1,154
1026.171268602366,1.7046147666425464,0,0,7990,8481,1,1,155
1026.2445356138855,1.6941807281595922,0,0,8006,8481,1,1,156
1026.237060692087,1.649247121851331,0,0,7990,8481,1,1,157
1026.2550761746415,1.6493648754969188,0,0,8006,8481,1,1,158
1026.1744255956146,1.649218314340164,0,0,7990,8481,1,1,159
1026.2550761746415,1.6397400226004766,0,0,7998,8481,1,1,160
1026.1744255956146,1.639594316699945,0,0,7047,8481,1,1,161
1026.171268602366,1.639622956105157,0,0,5439,8481,1,1,162
1026.1849691157445,1.6312075900043728,0,0,3818,8481,1,1,163
1026.1818084105962,1.6765302294954805,0,0,2282,8481,1,1,164
1026.1818084105962,1.6765302294954805,0,0,851,8481,1,1,165
1026.1744255956146,1.6312075900043728,0,0,14,8481,1,1,166
1026.0459233422446,1.631091144551597,0,0,0,8481,1,1,167
1026.0533035951182,1.639505905824131,0,0,0,8481,1,1,168
1026.1670397565297,1.6846327698499153,0,0,0,8481,1,1,169
1026.1370975343907,1.6846916306534168,0,0,0,8481,1,1,170
1026.12971595969,1.684662204030614,0,0,0,8481,1,1,171
1026.1191739282162,1.694030184704375,0,0,0,8481,1,1,172
1026.1818084105962,1.6600870611052807,0,0,0,8481,1,1,173
1026.21036210615,1.6602055887054497,0,0,0,8481,1,1,174
1026.1265572669145,1.7046147666425464,0,0,0,8481,1,1,175
1026.1191739282162,1.694030184704375,0,0,0,8481,1,1,176
1026.2029774447485,1.660176585641006,0,0,0,8481,1,1,177
1026.0744639412642,1.649218314340164,0,0,0,8481,1,1,178
1026.0744639412642,1.649218314340164,0,0,0,8481,1,1,179
1026.1191739282162,1.649218314340164,0,0,0,8481,1,1,180
1026.163884023454,1.639594316699945,0,0,0,8481,1,1,181
1026.144476084763,1.6396515881533997,0,0,0,8481,1,1,182
1026.0459233422446,1.631091144551597,0,0,352,8481,1,1,183
1026.2550761746415,1.676649931111961,0,0,1253,8481,1,1,184
1026.1191739282162,1.6765009454284245,0,0,2344,8481,1,1,185
1026.21036210615,1.676649931111961,0,0,3556,8481,1,1,186
1026.1265572669145,1.6312360829155028,0,0,4820,8481,1,1,187
1026.1744255956146,1.639594316699945,0,0,6141,8481,1,1,188
1026.1744255956146,1.639594316699945,0,0,7453,8481,1,1,189
1026.0906302458054,1.639477272551949,0,0,8006,8481,1,1,190
1026.2371479479734,1.6847824820548931,0,0,7990,8481,1,1,191
1026.208594226963,1.649218314340164,0,0,8006,8481,1,1,192
1026.1979664880073,1.64912938451521,0,0,7990,8481,1,1,193
1026.163884023454,1.7045849920209781,0,0,8006,8481,1,1,194
1026.1744255956146,1.7045849920209781,0,0,7990,8481,1,1,195
1026.2339004254522,1.6940893576167753,0,0,8006,8481,1,1,196
1026.163884023454,1.649218314340164,0,0,7990,8481,1,1,197
1026.226519395075,1.649247121851331,0,0,8006,8481,1,1,198
1026.1818084105962,1.649247121851331,0,0,7990,8481,1,1,199
1026.1532585871287,1.64912938451521,0,0,8006,8481,1,1,200
1026.2191353398498,1.649218314340164,0,0,7990,8481,1,1,201
1026.2191353398498,1.639594316699945,0,0,8006,8481,1,1,202
1026.1818084105962,1.6312360829155028,0,0,7990,8481,1,1,203
1026.2371479479734,1.6313240515867868,0,0,8006,8481,1,1,204
1026.145877618028,1.6763812666622973,0,0,7990,8481,1,1,205
1026.163884023454,1.6765009454284245,0,0,8006,8481,1,1,206
1026.1744255956146,1.6312075900043728,0,0,7990,8481,1,1,207
1026.1744255956146,1.639594316699945,0,0,8006,8481,1,1,208
1026.1744255956146,1.639594316699945,0,0,7990,8481,1,1,209
1026.1744255956146,1.639594316699945,0,0,8006,8481,1,1,210
1026.1818084105962,1.6846916306534168,0,0,7921,8481,1,1,211
1026.1744255956146,1.649218314340164,0,0,6745,8481,1,1,212
1026.1818084105962,1.6600870611052807,0,0,5125,8481,1,1,213
1026.192434660617,1.704706692451228,0,0,3550,8481,1,1,214
1026.1744255956146,1.7045849920209781,0,0,2037,8481,1,1,215
1026.1744255956146,1.694030184704375,0,0,649,8481,1,1,216
1026.1744255956146,1.6600580642521607,0,0,0,8481,1,1,217
1026.1370975343907,1.649247121851331,0,0,0,8481,1,1,218
1026.1370975343907,1.649247121851331,0,0,0,8481,1,1,219
1026.1191739282162,1.639594316699945,0,0,0,8481,1,1,220
1026.171268602366,1.639622956105157,0,0,0,8481,1,1,221
1026.1370975343907,1.639622956105157,0,0,0,8481,1,1,222
1026.0923867664726,1.6312360829155028,0,0,0,8481,1,1,223
1026.1370975343907,1.6312360829155028,0,0,0,8481,1,1,224
1026.1191739282162,1.6765009454284245,0,0,0,8481,1,1,225
1026.1191739282162,1.684662204030614,0,0,0,8481,1,1,226
1026.0923867664726,1.639622956105157,0,0,0,8481,1,1,227
1026.1818084105962,1.639622956105157,0,0,0,8481,1,1,228
1026.1265572669145,1.639622956105157,0,0,0,8481,1,1,229
1026.1191739282162,1.639594316699945,0,0,0,8481,1,1,230
1026.1370975343907,1.649247121851331,0,0,0,8481,1,1,231
1026.1656481459534,1.6397400226004766,0,0,18,8481,1,1,232
1026.21036210615,1.6602055887054497,0,0,543,8481,1,1,233
1026.1744255956146,1.7045849920209781,0,0,1476,8481,1,1,234
1026.1818084105962,1.7046147666425464,0,0,2583,8481,1,1,235
1026.1744255956146,1.649218314340164,0,0,3802,8481,1,1,236
1026.2371479479734,1.6493360618149864,0,0,5068,8481,1,1,237
1026.21036210615,1.6493648754969188,0,0,6385,8481,1,1,238
1026.192434660617,1.6493360618149864,0,0,7643,8481,1,1,239
1026.171268602366,1.649247121851331,0,0,8006,8481,1,1,240
1026.1818084105962,1.639622956105157,0,0,7990,8481,1,1,241
1026.1923501668903,1.639622956105157,0,0,8006,8481,1,1,242
1026.1818084105962,1.6312360829155028,0,0,7990,8481,1,1,243
1026.2191353398498,1.6312075900043728,0,0,8006,8481,1,1,244
1026.208594226963,1.6765009454284245,0,0,7990,8481,1,1,245
