BIOZ1,BIOZ2,BIOZ3,BIOZ4,ECG,PPG,EXC_FREQ_KHZ,MUX_CONFIG,PACKET_NUMBER
46.4440969789813,13.312469433774645,0,0,5886,8481,100,1,122
46.4440969789813,13.342679430280967,0,0,4401,8481,100,1,123
46.32122724343721,13.342679430280967,0,0,2993,8481,100,1,124
46.33780188083414,13.342679430280967,0,0,1667,8481,100,1,125
46.33780188083414,13.342679430280967,0,0,473,8481,100,1,126
46.58558067548976,13.342679430280967,0,0,0,8481,100,1,127
46.58558067548976,13.342679430280967,0,0,0,8481,100,1,128
46.47804577945334,13.342679430280967,0,0,0,8481,100,1,129
46.42326872582296,13.342679430280967,0,0,0,8481,100,1,130
46.38856401499984,13.287814668664895,0,0,0,8481,100,1,131
46.01347445132861,13.196600426117714,0,0,0,8481,100,1,132
46.01347445132861,13.196600426117714,0,0,0,8481,100,1,133
46.01347445132861,13.196600426117714,0,0,0,8481,100,1,134
46.22695260243845,13.140494053234073,0,0,0,8481,100,1,135
46.22695260243845,12.965597647925929,0,0,0,8481,100,1,136
46.22695260243845,12.909130360231302,0,0,0,8481,100,1,137
46.21045977509939,12.822577895099796,0,0,0,8481,100,1,138
46.14286063500135,12.822577895099796,0,0,0,8481,100,1,139
46.14286063500135,13.05230407468486,0,0,0,8481,100,1,140
46.55135239069664,13.16755564862235,0,0,0,8481,100,1,141
46.55135239069664,13.312469433774645,0,0,324,8481,100,1,142
46.55135239069664,13.342679430280967,0,0,1097,8481,100,1,143
46.322069437030926,13.342679430280967,0,0,2051,8481,100,1,144
46.33780188083414,13.342679430280967,0,0,3109,8481,100,1,145
46.33780188083414,13.342679430280967,0,0,4247,8481,100,1,146
46.58473369092967,13.342679430280967,0,0,5408,8481,100,1,147
46.58473369092967,13.342679430280967,0,0,6615,8481,100,1,148
46.58473369092967,13.25685345704832,0,0,7735,8481,100,1,149
46.49527870460119,13.25685345704832,0,0,7990,8481,100,1,150
46.42326872582296,13.25685345704832,0,0,8006,8481,100,1,151
46.10296396820925,13.226447430341807,0,0,7990,8481,100,1,152
46.10296396820925,13.140494053234073,0,0,8006,8481,100,1,153
46.10296396820925,13.140494053234073,0,0,7990,8481,100,1,154
46.22695260243845,13.140494053234073,0,0,8006,8481,100,1,155
46.22695260243845,12.937073971580178,0,0,7990,8481,100,1,156
46.22695260243845,12.822577895099796,0,0,8006,8481,100,1,157
46.17631300385485,12.822577895099796,0,0,7990,8481,100,1,158
46.05242781685804,12.822577895099796,0,0,8006,8481,100,1,159
46.05242781685804,12.937073971580178,0,0,7990,8481,100,1,160
46.55050602844989,13.167316245867958,0,0,8006,8481,100,1,161
46.55050602844989,13.312469433774645,0,0,7990,8481,100,1,162
46.55050602844989,13.312469433774645,0,0,8006,8481,100,1,163
46.33864437578114,13.312469433774645,0,0,7990,8481,100,1,164
46.33864437578114,13.342922021416994,0,0,8006,8481,100,1,165
46.33864437578114,13.342922021416994,0,0,7990,8481,100,1,166
46.58473369092967,13.342922021416994,0,0,8006,8481,100,1,167
46.58473369092967,13.342679430280967,0,0,7990,8481,100,1,168
46.49527870460119,13.25685345704832,0,0,8006,8481,100,1,169
46.440879489924605,13.25685345704832,0,0,7990,8481,100,1,170
46.40583016944442,13.25685345704832,0,0,7990,8481,100,1,171
46.120157045076375,13.140494053234073,0,0,7317,8481,100,1,172
46.120157045076375,13.140494053234073,0,0,5706,8481,100,1,173
46.120157045076375,13.140494053234073,0,0,4114,8481,100,1,174
46.22695260243845,13.140494053234073,0,0,2561,8481,100,1,175
46.316388122835825,12.937073971580178,0,0,1112,8481,100,1,176
46.316388122835825,12.822577895099796,0,0,70,8481,100,1,177
46.08678252559218,12.822344764475679,0,0,0,8481,100,1,178
46.05242781685804,12.822577895099796,0,0,0,8481,100,1,179
46.05242781685804,12.937073971580178,0,0,0,8481,100,1,180
46.56753386978161,13.167316245867958,0,0,0,8481,100,1,181
46.56753386978161,13.312469433774645,0,0,0,8481,100,1,182
46.56753386978161,13.312469433774645,0,0,0,8481,100,1,183
46.33780188083414,13.312469433774645,0,0,0,8481,100,1,184
46.33780188083414,13.257094487731635,0,0,0,8481,100,1,185
46.33780188083414,13.257094487731635,0,0,0,8481,100,1,186
46.67419509133722,13.342679430280967,0,0,0,8481,100,1,187
46.67419509133722,13.342679430280967,0,0,0,8481,100,1,188
46.51268372490664,13.25685345704832,0,0,0,8481,100,1,189
46.51268372490664,13.226687908195188,0,0,0,8481,100,1,190
46.42411277469314,13.25685345704832,0,0,0,8481,100,1,191
46.120157045076375,13.226687908195188,0,0,0,8481,100,1,192
46.120157045076375,13.140494053234073,0,0,0,8481,100,1,193
46.120157045076375,13.140494053234073,0,0,0,8481,100,1,194
46.22695260243845,13.140494053234073,0,0,171,8481,100,1,195
46.22695260243845,12.965597647925929,0,0,979,8481,100,1,196
46.22695260243845,12.79479941630421,0,0,2034,8481,100,1,197
46.06909916241261,12.79479941630421,0,0,3236,8481,100,1,198
46.05242781685804,12.909130360231302,0,0,4487,8481,100,1,199
46.05242781685804,13.052066767349315,0,0,5806,8481,100,1,200
46.47804577945334,13.196600426117714,0,0,7112,8481,100,1,201
46.47804577945334,13.312469433774645,0,0,7987,8481,100,1,202
46.56753386978161,13.342679430280967,0,0,7990,8481,100,1,203
46.42738148173618,13.342679430280967,0,0,7990,8481,100,1,204
46.42738148173618,13.342679430280967,0,0,8006,8481,100,1,205
46.42738148173618,13.342679430280967,0,0,7990,8481,100,1,206
46.58473369092967,13.342679430280967,0,0,8006,8481,100,1,207
46.58473369092967,13.342679430280967,0,0,7990,8481,100,1,208
46.49527870460119,13.25685345704832,0,0,8006,8481,100,1,209
46.49527870460119,13.25685345704832,0,0,7990,8481,100,1,210
46.42326872582296,13.25685345704832,0,0,8006,8481,100,1,211
46.10296396820925,13.226447430341807,0,0,7990,8481,100,1,212
46.10296396820925,13.226447430341807,0,0,8006,8481,100,1,213
46.10296396820925,13.226447430341807,0,0,7990,8481,100,1,214
46.22695260243845,13.140494053234073,0,0,8006,8481,100,1,215
46.316388122835825,12.99469756949891,0,0,7990,8481,100,1,216
46.316388122835825,12.909130360231302,0,0,8006,8481,100,1,217
46.06909916241261,12.909130360231302,0,0,7990,8481,100,1,218
46.05242781685804,12.909130360231302,0,0,8006,8481,100,1,219
46.05242781685804,13.196600426117714,0,0,7990,8481,100,1,220
46.46098514095944,13.196600426117714,0,0,8006,8481,100,1,221
46.46098514095944,13.312469433774645,0,0,7990,8481,100,1,222
46.56753386978161,13.342679430280967,0,0,7990,8481,100,1,223
46.4440969789813,13.342679430280967,0,0,7712,8481,100,1,224
46.4440969789813,13.342679430280967,0,0,6280,8481,100,1,225
46.4440969789813,13.342679430280967,0,0,4752,8481,100,1,226
46.67419509133722,13.342679430280967,0,0,3241,8481,100,1,227
46.67419509133722,13.342679430280967,0,0,1820,8481,100,1,228
46.49527870460119,13.342679430280967,0,0,508,8481,100,1,229
46.49527870460119,13.342679430280967,0,0,0,8481,100,1,230
46.42326872582296,13.287814668664895,0,0,0,8481,100,1,231
46.120157045076375,13.140494053234073,0,0,0,8481,100,1,232
46.120157045076375,13.140494053234073,0,0,0,8481,100,1,233
46.120157045076375,13.140494053234073,0,0,0,8481,100,1,234
46.20961961070997,13.140494053234073,0,0,0,8481,100,1,235
46.316388122835825,12.965597647925929,0,0,0,8481,100,1,236
46.316388122835825,12.909130360231302,0,0,0,8481,100,1,237
46.06909916241261,12.909130360231302,0,0,0,8481,100,1,238
46.05242781685804,12.909130360231302,0,0,0,8481,100,1,239
46.05242781685804,13.080974331225596,0,0,0,8481,100,1,240
46.46098514095944,13.196600426117714,0,0,0,8481,100,1,241
46.46098514095944,13.312469433774645,0,0,0,8481,100,1,242
46.657028249585586,13.342679430280967,0,0,0,8481,100,1,243
46.42738148173618,13.342679430280967,0,0,0,8481,100,1,244
46.42738148173618,13.342679430280967,0,0,0,8481,100,1,245
46.42738148173618,13.342679430280967,0,0,0,8481,100,1,246
46.67419509133722,13.342679430280967,0,0,0,8481,100,1,247
46.67419509133722,13.342679430280967,0,0,64,8481,100,1,248
46.60210530147208,13.342679430280967,0,0,700,8481,100,1,249
46.49527870460119,13.342679430280967,0,0,1651,8481,100,1,250
46.42326872582296,13.342679430280967,0,0,2739,8481,100,1,251
46.20961961070997,13.226447430341807,0,0,3917,8481,100,1,252
46.20961961070997,13.140494053234073,0,0,5119,8481,100,1,253
46.20961961070997,13.140494053234073,0,0,6356,8481,100,1,254
46.22695260243845,13.140494053234073,0,0,7555,8481,100,1,255
46.33386034230067,13.080974331225596,0,0,7990,8481,100,1,0
46.33386034230067,12.822344764475679,0,0,8006,8481,100,1,1
46.06909916241261,12.822344764475679,0,0,7990,8481,100,1,2
46.05242781685804,12.909130360231302,0,0,8006,8481,100,1,3
46.05242781685804,13.196600426117714,0,0,7990,8481,100,1,4
46.46098514095944,13.196600426117714,0,0,8006,8481,100,1,5
46.46098514095944,13.312469433774645,0,0,7990,8481,100,1,6
46.657028249585586,13.342679430280967,0,0,8006,8481,100,1,7
46.4440969789813,13.342679430280967,0,0,7990,8481,100,1,8
46.4440969789813,13.340749806248619,0,0,8006,8481,100,1,9
46.4440969789813,13.312469433774645,0,0,7990,8481,100,1,10
46.67419509133722,13.312469433774645,0,0,8006,8481,100,1,11
46.67419509133722,13.226447430341807,0,0,7990,8481,100,1,12
46.60210530147208,13.226447430341807,0,0,8006,8481,100,1,13
46.60210530147208,13.226447430341807,0,0,7990,8481,100,1,14
46.440879489924605,13.287814668664895,0,0,8006,8481,100,1,15
46.20961961070997,13.25685345704832,0,0,7990,8481,100,1,16
46.20961961070997,13.25685345704832,0,0,8006,8481,100,1,17
46.20961961070997,13.25685345704832,0,0,7990,8481,100,1,18
46.22695260243845,13.140494053234073,0,0,8006,8481,100,1,19
46.316388122835825,13.140494053234073,0,0,7990,8481,100,1,20
46.316388122835825,12.909130360231302,0,0,7976,8481,100,1,21
46.06909916241261,12.909130360231302,0,0,7073,8481,100,1,22
46.04576769495917,12.937073971580178,0,0,5578,8481,100,1,23
46.04576769495917,13.224534615831235,0,0,4127,8481,100,1,24
46.46098514095944,13.224534615831235,0,0,2727,8481,100,1,25
46.46098514095944,13.312469433774645,0,0,1438,8481,100,1,26
46.657028249585586,13.312469433774645,0,0,302,8481,100,1,27
46.53365035572985,13.312469433774645,0,0,0,8481,100,1,28
46.53365035572985,13.312469433774645,0,0,0,8481,100,1,29
46.53365035572985,13.312469433774645,0,0,0,8481,100,1,30
46.67419509133722,13.226447430341807,0,0,0,8481,100,1,31
46.67419509133722,13.226447430341807,0,0,0,8481,100,1,32
46.60210530147208,13.226447430341807,0,0,0,8481,100,1,33
46.60210530147208,13.196600426117714,0,0,0,8481,100,1,34
46.51268372490664,13.25685345704832,0,0,0,8481,100,1,35
46.22695260243845,13.226447430341807,0,0,0,8481,100,1,36
46.20961961070997,13.226447430341807,0,0,0,8481,100,1,37
46.20961961070997,13.226447430341807,0,0,0,8481,100,1,38
46.20961961070997,13.226447430341807,0,0,0,8481,100,1,39
46.316388122835825,13.226447430341807,0,0,0,8481,100,1,40
46.316388122835825,12.965597647925929,0,0,0,8481,100,1,41
46.06909916241261,12.965597647925929,0,0,0,8481,100,1,42
46.05242781685804,13.080974331225596,0,0,17,8481,100,1,43
46.06909916241261,13.226447430341807,0,0,488,8481,100,1,44
46.4440969789813,13.226447430341807,0,0,1314,8481,100,1,45
46.4440969789813,13.282815725748776,0,0,2305,8481,100,1,46
46.64003308182917,13.312469433774645,0,0,3383,8481,100,1,47
46.55050602844989,13.312469433774645,0,0,4536,8481,100,1,48
46.55050602844989,13.312469433774645,0,0,5704,8481,100,1,49
46.55050602844989,13.312469433774645,0,0,6906,8481,100,1,50
46.657028249585586,13.196600426117714,0,0,7884,8481,100,1,51
46.67419509133722,13.196600426117714,0,0,7990,8481,100,1,52
46.67419509133722,13.226447430341807,0,0,8006,8481,100,1,53
46.60210530147208,13.226447430341807,0,0,7990,8481,100,1,54
46.42326872582296,13.226447430341807,0,0,8006,8481,100,1,55
46.316388122835825,13.226447430341807,0,0,7990,8481,100,1,56
46.10296396820925,13.171098508368184,0,0,8006,8481,100,1,57
46.10296396820925,13.171098508368184,0,0,7990,8481,100,1,58
46.10296396820925,13.140494053234073,0,0,8006,8481,100,1,59
46.29908861309894,13.140494053234073,0,0,7990,8481,100,1,60
46.29908861309894,12.937073971580178,0,0,8006,8481,100,1,61
46.03593076229377,12.937073971580178,0,0,7990,8481,100,1,62
46.03593076229377,12.937073971580178,0,0,8006,8481,100,1,63
46.12555668883259,13.226447430341807,0,0,7990,8481,100,1,64
46.33780188083414,13.226447430341807,0,0,8006,8481,100,1,65
46.33780188083414,13.312469433774645,0,0,7990,8481,100,1,66
46.53365035572985,13.312469433774645,0,0,8006,8481,100,1,67
46.53365035572985,13.312469433774645,0,0,7990,8481,100,1,68
46.53365035572985,13.312469433774645,0,0,8006,8481,100,1,69
46.4440969789813,13.312469433774645,0,0,7990,8481,100,1,70
46.4440969789813,13.226447430341807,0,0,8006,8481,100,1,71
46.60210530147208,13.226447430341807,0,0,7990,8481,100,1,72
46.60210530147208,13.226447430341807,0,0,7678,8481,100,1,73
46.60210530147208,13.226447430341807,0,0,6223,8481,100,1,74
46.40583016944442,13.25685345704832,0,0,4615,8481,100,1,75
46.33386034230067,13.226447430341807,0,0,3062,8481,100,1,76
45.996421980493636,13.226447430341807,0,0,1575,8481,100,1,77
45.996421980493636,13.226447430341807,0,0,282,8481,100,1,78
45.996421980493636,13.110451370646809,0,0,0,8481,100,1,79
46.078441155138904,12.992581845821858,0,0,0,8481,100,1,80
46.078441155138904,12.820257102314368,0,0,0,8481,100,1,81
45.95619274068486,12.820257102314368,0,0,0,8481,100,1,82
45.95619274068486,12.820490391466283,0,0,0,8481,100,1,83
46.05242781685804,12.965597647925929,0,0,0,8481,100,1,84
46.23162151999429,13.167076576354358,0,0,0,8481,100,1,85
46.42738148173618,13.312469433774645,0,0,0,8481,100,1,86
46.42738148173618,13.312469433774645,0,0,0,8481,100,1,87
46.42738148173618,13.312469433774645,0,0,0,8481,100,1,88
46.42738148173618,13.226447430341807,0,0,0,8481,100,1,89
46.33780188083414,13.226447430341807,0,0,0,8481,100,1,90
46.33780188083414,13.342679430280967,0,0,0,8481,100,1,91
46.60210530147208,13.342679430280967,0,0,0,8481,100,1,92
46.60210530147208,13.25685345704832,0,0,0,8481,100,1,93
46.60210530147208,13.226447430341807,0,0,0,8481,100,1,94
46.20961961070997,13.25685345704832,0,0,0,8481,100,1,95
46.20961961070997,13.226447430341807,0,0,0,8481,100,1,96
45.995584760525816,13.140254871933994,0,0,0,8481,100,1,97
46.09629653775046,13.140254871933994,0,0,60,8481,100,1,98
46.09629653775046,13.110212736179129,0,0,721,8481,100,1,99
46.09629653775046,12.937073971580178,0,0,1731,8481,100,1,100
45.97954373485318,12.822111374081194,0,0,2888,8481,100,1,101
45.96283990634163,12.822111374081194,0,0,4136,8481,100,1,102
45.96283990634163,12.909130360231302,0,0,5400,8481,100,1,103
46.05242781685804,12.965597647925929,0,0,6692,8481,100,1,104
46.11888599100483,13.167076576354358,0,0,7811,8481,100,1,105
46.426536417508224,13.310544178724975,0,0,7990,8481,100,1,106
46.426536417508224,13.342436568833007,0,0,8006,8481,100,1,107
46.426536417508224,13.342436568833007,0,0,7990,8481,100,1,108
46.426536417508224,13.25685345704832,0,0,8006,8481,100,1,109
46.33780188083414,13.25685345704832,0,0,7990,8481,100,1,110
46.33780188083414,13.25685345704832,0,0,8006,8481,100,1,111
46.60210530147208,13.25685345704832,0,0,7990,8481,100,1,112
46.60210530147208,13.25661215779184,0,0,8006,8481,100,1,113
46.51183710802007,13.25661215779184,0,0,7990,8481,100,1,114
46.20961961070997,13.25661215779184,0,0,8006,8481,100,1,115
46.20961961070997,13.226447430341807,0,0,7990,8481,100,1,116
45.995584760525816,13.171098508368184,0,0,8006,8481,100,1,117
46.102124808980186,13.171098508368184,0,0,7990,8481,100,1,118
46.102124808980186,13.110212736179129,0,0,8006,8481,100,1,119
46.102124808980186,13.108316800585955,0,0,7990,8481,100,1,120
45.995584760525816,12.936838492901886,0,0,8006,8481,100,1,121
45.96283990634163,12.909130360231302,0,0,7990,8481,100,1,122
45.962003297629686,12.936838492901886,0,0,8006,8481,100,1,123
45.96283990634163,13.226206684531263,0,0,7990,8481,100,1,124
46.12555668883259,13.226206684531263,0,0,8006,8481,100,1,125
46.426536417508224,13.342436568833007,0,0,7990,8481,100,1,126
46.426536417508224,13.342436568833007,0,0,7367,8481,100,1,127
46.426536417508224,13.342436568833007,0,0,5889,8481,100,1,128
46.426536417508224,13.342436568833007,0,0,4389,8481,100,1,129
46.33695844712064,13.312227122204506,0,0,2961,8481,100,1,130
46.33695844712064,13.226206684531263,0,0,1611,8481,100,1,131
46.60210530147208,13.226206684531263,0,0,401,8481,100,1,132
46.60210530147208,13.226206684531263,0,0,0,8481,100,1,133
46.60210530147208,13.226447430341807,0,0,0,8481,100,1,134
46.29908861309894,13.25685345704832,0,0,0,8481,100,1,135
46.29908861309894,13.25661215779184,0,0,0,8481,100,1,136
45.995584760525816,13.25661215779184,0,0,0,8481,100,1,137
46.012636920974295,13.25661215779184,0,0,0,8481,100,1,138
46.012636920974295,13.25661215779184,0,0,0,8481,100,1,139
46.085944609810994,13.25661215779184,0,0,0,8481,100,1,140
46.085944609810994,12.937073971580178,0,0,0,8481,100,1,141
45.96283990634163,12.937073971580178,0,0,0,8481,100,1,142
45.96283990634163,13.080974331225596,0,0,0,8481,100,1,143
46.05242781685804,13.226447430341807,0,0,0,8481,100,1,144
46.12555668883259,13.226447430341807,0,0,0,8481,100,1,145
46.33780188083414,13.312469433774645,0,0,0,8481,100,1,146
46.42738148173618,13.312469433774645,0,0,0,8481,100,1,147
46.42738148173618,13.312469433774645,0,0,0,8481,100,1,148
46.42738148173618,13.312227122204506,0,0,47,8481,100,1,149
46.33780188083414,13.31030197226733,0,0,626,8481,100,1,150
46.33780188083414,13.226447430341807,0,0,1526,8481,100,1,151
46.61964850937016,13.196600426117714,0,0,2593,8481,100,1,152
46.61964850937016,13.226447430341807,0,0,3749,8481,100,1,153
46.60210530147208,13.226447430341807,0,0,4981,8481,100,1,154
46.29908861309894,13.226447430341807,0,0,6231,8481,100,1,155
46.29908861309894,13.25685345704832,0,0,7519,8481,100,1,156
45.995584760525816,13.25685345704832,0,0,7990,8481,100,1,157
45.996421980493636,13.171098508368184,0,0,7990,8481,100,1,158
45.996421980493636,13.171098508368184,0,0,8006,8481,100,1,159
46.085944609810994,13.171098508368184,0,0,7990,8481,100,1,160
46.085944609810994,13.110451370646809,0,0,8006,8481,100,1,161
45.96283990634163,13.080974331225596,0,0,7990,8481,100,1,162
45.94631068518752,13.080974331225596,0,0,8006,8481,100,1,163
45.94631068518752,13.226447430341807,0,0,7990,8481,100,1,164
46.12555668883259,13.226447430341807,0,0,8006,8481,100,1,165
46.33780188083414,13.312469433774645,0,0,7990,8481,100,1,166
46.42738148173618,13.312469433774645,0,0,8006,8481,100,1,167
46.42738148173618,13.342679430280967,0,0,7990,8481,100,1,168
46.42738148173618,13.312469433774645,0,0,8006,8481,100,1,169
46.33780188083414,13.312469433774645,0,0,7990,8481,100,1,170
46.33780188083414,13.226447430341807,0,0,8006,8481,100,1,171
46.60210530147208,13.196600426117714,0,0,7990,8481,100,1,172
46.60210530147208,13.226447430341807,0,0,8006,8481,100,1,173
46.51268372490664,13.226447430341807,0,0,7990,8481,100,1,174
46.29908861309894,13.226447430341807,0,0,8006,8481,100,1,175
46.29908861309894,13.25685345704832,0,0,7990,8481,100,1,176
45.996421980493636,13.25685345704832,0,0,8006,8481,100,1,177
45.996421980493636,13.171098508368184,0,0,7990,8481,100,1,178
45.996421980493636,13.171098508368184,0,0,7780,8481,100,1,179
45.996421980493636,13.171098508368184,0,0,6424,8481,100,1,180
45.996421980493636,12.965597647925929,0,0,4850,8481,100,1,181
45.96283990634163,12.965597647925929,0,0,3332,8481,100,1,182
45.96283990634163,12.99469756949891,0,0,1884,8481,100,1,183
45.96283990634163,13.226447430341807,0,0,557,8481,100,1,184
46.12555668883259,13.226447430341807,0,0,0,8481,100,1,185
46.33780188083414,13.312469433774645,0,0,0,8481,100,1,186
46.42738148173618,13.226447430341807,0,0,0,8481,100,1,187
46.42738148173618,13.312469433774645,0,0,0,8481,100,1,188
46.42738148173618,13.25685345704832,0,0,0,8481,100,1,189
46.33780188083414,13.25685345704832,0,0,0,8481,100,1,190
46.33780188083414,13.226447430341807,0,0,0,8481,100,1,191
46.58473369092967,13.196600426117714,0,0,0,8481,100,1,192
46.60210530147208,13.226447430341807,0,0,0,8481,100,1,193
46.60210530147208,13.226447430341807,0,0,0,8481,100,1,194
46.20961961070997,13.25685345704832,0,0,0,8481,100,1,195
46.20961961070997,13.25685345704832,0,0,0,8481,100,1,196
45.996421980493636,13.25661215779184,0,0,0,8481,100,1,197
45.996421980493636,13.226447430341807,0,0,0,8481,100,1,198
45.996421980493636,13.226447430341807,0,0,0,8481,100,1,199
46.085944609810994,13.226447430341807,0,0,0,8481,100,1,200
46.085944609810994,12.99469756949891,0,0,0,8481,100,1,201
45.856696491809345,12.99469756949891,0,0,129,8481,100,1,202
45.856696491809345,13.080974331225596,0,0,862,8481,100,1,203
45.94631068518752,13.226447430341807,0,0,1866,8481,100,1,204
46.14202169964948,13.226447430341807,0,0,3005,8481,100,1,205
46.33780188083414,13.282815725748776,0,0,4244,8481,100,1,206
46.42738148173618,13.312469433774645,0,0,5521,8481,100,1,207
46.42738148173618,13.312469433774645,0,0,6850,8481,100,1,208
46.42738148173618,13.312469433774645,0,0,7899,8481,100,1,209
46.33780188083414,13.312469433774645,0,0,7990,8481,100,1,210
46.33780188083414,13.196600426117714,0,0,8006,8481,100,1,211
46.51268372490664,13.196600426117714,0,0,7990,8481,100,1,212
46.51268372490664,13.196600426117714,0,0,8006,8481,100,1,213
46.51268372490664,13.226447430341807,0,0,7990,8481,100,1,214
46.29908861309894,13.226447430341807,0,0,8006,8481,100,1,215
46.29908861309894,13.226447430341807,0,0,7990,8481,100,1,216
45.995584760525816,13.171098508368184,0,0,8006,8481,100,1,217
45.995584760525816,13.140254871933994,0,0,7990,8481,100,1,218
45.995584760525816,13.140254871933994,0,0,8006,8481,100,1,219
46.10296396820925,13.140254871933994,0,0,7990,8481,100,1,220
46.10296396820925,13.110451370646809,0,0,8006,8481,100,1,221
45.962003297629686,13.110451370646809,0,0,7990,8481,100,1,222
45.94547437733798,13.196360223577859,0,0,8006,8481,100,1,223
45.962003297629686,13.312227122204506,0,0,7990,8481,100,1,224
46.141181829497434,13.312227122204506,0,0,8006,8481,100,1,225
46.33695844712064,13.312227122204506,0,0,7990,8481,100,1,226
46.426536417508224,13.312227122204506,0,0,8006,8481,100,1,227
46.426536417508224,13.312469433774645,0,0,7990,8481,100,1,228
46.426536417508224,13.312469433774645,0,0,8006,8481,100,1,229
46.35370594203027,13.312469433774645,0,0,7990,8481,100,1,230
46.35370594203027,13.196600426117714,0,0,7990,8481,100,1,231
46.58473369092967,13.196600426117714,0,0,7803,8481,100,1,232
46.58473369092967,13.196600426117714,0,0,6416,8481,100,1,233
46.51268372490664,13.196600426117714,0,0,4849,8481,100,1,234
46.316388122835825,13.196600426117714,0,0,3303,8481,100,1,235
46.243616878017704,13.25685345704832,0,0,1854,8481,100,1,236
45.995584760525816,13.171098508368184,0,0,517,8481,100,1,237
45.995584760525816,13.226206684531263,0,0,0,8481,100,1,238
45.995584760525816,13.226206684531263,0,0,0,8481,100,1,239
46.102124808980186,13.226206684531263,0,0,0,8481,100,1,240
46.102124808980186,13.140254871933994,0,0,0,8481,100,1,241
45.94547437733798,13.140254871933994,0,0,0,8481,100,1,242
45.94547437733798,13.226206684531263,0,0,0,8481,100,1,243
46.03509282319304,13.282573953930982,0,0,0,8481,100,1,244
46.141181829497434,13.282573953930982,0,0,0,8481,100,1,245
46.320384111412764,13.282573953930982,0,0,0,8481,100,1,246
46.42738148173618,13.312469433774645,0,0,0,8481,100,1,247
46.42738148173618,13.312469433774645,0,0,0,8481,100,1,248
46.42738148173618,13.312227122204506,0,0,0,8481,100,1,249
46.35454968058472,13.312227122204506,0,0,0,8481,100,1,250
46.35454968058472,13.196600426117714,0,0,0,8481,100,1,251
46.60125705694738,13.196600426117714,0,0,0,8481,100,1,252
46.60125705694738,13.196600426117714,0,0,0,8481,100,1,253
46.51183710802007,13.226206684531263,0,0,0,8481,100,1,254
46.31554507889233,13.226206684531263,0,0,81,8481,100,1,255
46.243616878017704,13.25661215779184,0,0,740,8481,100,1,0
46.012636920974295,13.226206684531263,0,0,1684,8481,100,1,1
46.012636920974295,13.226206684531263,0,0,2776,8481,100,1,2
46.012636920974295,13.226206684531263,0,0,3939,8481,100,1,3
46.102124808980186,13.226206684531263,0,0,5166,8481,100,1,4
46.102124808980186,13.110212736179129,0,0,6399,8481,100,1,5
45.962003297629686,13.110212736179129,0,0,7636,8481,100,1,6
45.962003297629686,13.194451829751479,0,0,7990,8481,100,1,7
46.03509282319304,13.226206684531263,0,0,7990,8481,100,1,8
46.141181829497434,13.226206684531263,0,0,8006,8481,100,1,9
46.320384111412764,13.312227122204506,0,0,7990,8481,100,1,10
46.41982243623019,13.224293974453975,0,0,8006,8481,100,1,11
46.41982243623019,13.31030197226733,0,0,7990,8481,100,1,12
46.41982243623019,13.31030197226733,0,0,8006,8481,100,1,13
46.35370594203027,13.31030197226733,0,0,7990,8481,100,1,14
46.35370594203027,13.196360223577859,0,0,8006,8481,100,1,15
46.60125705694738,13.196360223577859,0,0,7990,8481,100,1,16
46.60125705694738,13.196360223577859,0,0,8006,8481,100,1,17
46.51183710802007,13.226206684531263,0,0,7990,8481,100,1,18
46.31554507889233,13.226206684531263,0,0,8006,8481,100,1,19
46.21942618963694,13.254695050621985,0,0,7990,8481,100,1,20
46.012636920974295,13.170858770010407,0,0,8006,8481,100,1,21
46.012636920974295,13.140254871933994,0,0,7990,8481,100,1,22
46.012636920974295,13.140254871933994,0,0,8006,8481,100,1,23
46.095457742540816,13.140254871933994,0,0,7990,8481,100,1,24
46.095457742540816,13.108316800585955,0,0,8006,8481,100,1,25
45.95535649488597,13.108316800585955,0,0,7990,8481,100,1,26
45.95535649488597,13.108316800585955,0,0,8006,8481,100,1,27
46.04492981920194,13.224293974453975,0,0,7990,8481,100,1,28
46.13450911482056,13.224293974453975,0,0,7911,8481,100,1,29
46.33025742017568,13.280653092291663,0,0,6756,8481,100,1,30
46.426536417508224,13.226206684531263,0,0,5200,8481,100,1,31
46.426536417508224,13.31030197226733,0,0,3689,8481,100,1,32
46.426536417508224,13.226206684531263,0,0,2243,8481,100,1,33
46.35370594203027,13.226206684531263,0,0,923,8481,100,1,34
46.35370594203027,13.196360223577859,0,0,41,8481,100,1,35
46.618799945526625,13.196360223577859,0,0,0,8481,100,1,36
46.618799945526625,13.196360223577859,0,0,0,8481,100,1,37
46.618799945526625,13.196360223577859,0,0,0,8481,100,1,38
46.31554507889233,13.254695050621985,0,0,0,8481,100,1,39
46.243616878017704,13.25661215779184,0,0,0,8481,100,1,40
46.012636920974295,13.254695050621985,0,0,0,8481,100,1,41
46.012636920974295,13.140254871933994,0,0,0,8481,100,1,42
46.012636920974295,13.140254871933994,0,0,0,8481,100,1,43
46.102124808980186,13.140254871933994,0,0,0,8481,100,1,44
46.102124808980186,13.140254871933994,0,0,0,8481,100,1,45
45.962003297629686,13.140254871933994,0,0,0,8481,100,1,46
45.962003297629686,13.226206684531263,0,0,0,8481,100,1,47
46.05158957748041,13.226206684531263,0,0,0,8481,100,1,48
46.141181829497434,13.196360223577859,0,0,0,8481,100,1,49
46.33695844712064,13.196360223577859,0,0,0,8481,100,1,50
46.426536417508224,13.282573953930982,0,0,2,8481,100,1,51
46.426536417508224,13.312227122204506,0,0,418,8481,100,1,52
46.426536417508224,13.282573953930982,0,0,1255,8481,100,1,53
46.35370594203027,13.196360223577859,0,0,2272,8481,100,1,54
46.35370594203027,13.196360223577859,0,0,3387,8481,100,1,55
46.618799945526625,13.110212736179129,0,0,4586,8481,100,1,56
46.618799945526625,13.110212736179129,0,0,5809,8481,100,1,57
46.618799945526625,13.110212736179129,0,0,7079,8481,100,1,58
46.31554507889233,13.140254871933994,0,0,7956,8481,100,1,59
46.31554507889233,13.226206684531263,0,0,7990,8481,100,1,60
46.102124808980186,13.140254871933994,0,0,8006,8481,100,1,61
46.102124808980186,13.110212736179129,0,0,7990,8481,100,1,62
46.102124808980186,13.110212736179129,0,0,8006,8481,100,1,63
46.19161904407367,13.170858770010407,0,0,7990,8481,100,1,64
46.19161904407367,13.226206684531263,0,0,8006,8481,100,1,65
46.04492981920194,13.226206684531263,0,0,7990,8481,100,1,66
46.02843545059544,13.254695050621985,0,0,8006,8481,100,1,67
46.04492981920194,13.224293974453975,0,0,7990,8481,100,1,68
46.230780018959784,13.226206684531263,0,0,8006,8481,100,1,69
46.426536417508224,13.226206684531263,0,0,7990,8481,100,1,70
46.426536417508224,13.226206684531263,0,0,8006,8481,100,1,71
46.426536417508224,13.342436568833007,0,0,7990,8481,100,1,72
46.426536417508224,13.196360223577859,0,0,8006,8481,100,1,73
46.35370594203027,13.196360223577859,0,0,7990,8481,100,1,74
46.35370594203027,13.110212736179129,0,0,8006,8481,100,1,75
46.60125705694738,13.080736233294562,0,0,7990,8481,100,1,76
46.618799945526625,13.110212736179129,0,0,8006,8481,100,1,77
46.60125705694738,13.140254871933994,0,0,7990,8481,100,1,78
46.31554507889233,13.140254871933994,0,0,8006,8481,100,1,79
46.31554507889233,13.226206684531263,0,0,7990,8481,100,1,80
46.102124808980186,13.138354591792362,0,0,7990,8481,100,1,81
46.102124808980186,13.110212736179129,0,0,7418,8481,100,1,82
46.102124808980186,13.110212736179129,0,0,5840,8481,100,1,83
46.19161904407367,13.168954064080971,0,0,4262,8481,100,1,84
46.19161904407367,13.168954064080971,0,0,2718,8481,100,1,85
45.962003297629686,13.224293974453975,0,0,1279,8481,100,1,86
45.962003297629686,13.224293974453975,0,0,137,8481,100,1,87
46.02843545059544,13.224293974453975,0,0,0,8481,100,1,88
46.22409434702584,13.194451829751479,0,0,0,8481,100,1,89
46.426536417508224,13.194451829751479,0,0,0,8481,100,1,90
46.426536417508224,13.224293974453975,0,0,0,8481,100,1,91
46.426536417508224,13.31030197226733,0,0,0,8481,100,1,92
46.41982243623019,13.224293974453975,0,0,0,8481,100,1,93
46.33695844712064,13.194451829751479,0,0,0,8481,100,1,94
46.33695844712064,13.110212736179129,0,0,0,8481,100,1,95
46.673345534645,13.080736233294562,0,0,0,8481,100,1,96
46.673345534645,13.110212736179129,0,0,0,8481,100,1,97
46.618799945526625,13.110212736179129,0,0,0,8481,100,1,98
46.29824588403852,13.140254871933994,0,0,0,8481,100,1,99
46.29824588403852,13.226206684531263,0,0,0,8481,100,1,100
46.07760173646255,13.140254871933994,0,0,0,8481,100,1,101
46.078441155138904,13.108316800585955,0,0,0,8481,100,1,102
46.078441155138904,13.108316800585955,0,0,0,8481,100,1,103
46.08510576036573,13.140254871933994,0,0,0,8481,100,1,104
46.08510576036573,13.140254871933994,0,0,0,8481,100,1,105
45.95535649488597,13.140254871933994,0,0,366,8481,100,1,106
45.95535649488597,13.224293974453975,0,0,1243,8481,100,1,107
46.02843545059544,13.224293974453975,0,0,2315,8481,100,1,108
46.2076639333471,13.194451829751479,0,0,3488,8481,100,1,109
46.525226434843646,13.194451829751479,0,0,4743,8481,100,1,110
46.525226434843646,13.224293974453975,0,0,6016,8481,100,1,111
46.525226434843646,13.340264023901467,0,0,7334,8481,100,1,112
46.40328248366147,13.224293974453975,0,0,7989,8481,100,1,113
46.320384111412764,13.224293974453975,0,0,7990,8481,100,1,114
46.320384111412764,13.167076576354358,0,0,8006,8481,100,1,115
46.66659586102548,13.110212736179129,0,0,7990,8481,100,1,116
46.683931364487876,13.110212736179129,0,0,8006,8481,100,1,117
46.683931364487876,13.138354591792362,0,0,7990,8481,100,1,118
46.291550455517296,13.138354591792362,0,0,8006,8481,100,1,119
46.291550455517296,13.138354591792362,0,0,7990,8481,100,1,120
45.98809531330011,13.138354591792362,0,0,8006,8481,100,1,121
46.09461801387044,13.108078004184378,0,0,7990,8481,100,1,122
46.09461801387044,13.108078004184378,0,0,8006,8481,100,1,123
46.09461801387044,13.140254871933994,0,0,7990,8481,100,1,124
46.06826061958565,13.140254871933994,0,0,8006,8481,100,1,125
46.04492981920194,13.138354591792362,0,0,7990,8481,100,1,126
46.02759694288138,13.138354591792362,0,0,8006,8481,100,1,127
46.04492981920194,13.194211464213659,0,0,7990,8481,100,1,128
46.20682216059776,13.194451829751479,0,0,8006,8481,100,1,129
46.5319554161173,13.194451829751479,0,0,7990,8481,100,1,130
46.5319554161173,13.225965670808403,0,0,8006,8481,100,1,131
46.5319554161173,13.31030197226733,0,0,7990,8481,100,1,132
46.40328248366147,13.225965670808403,0,0,7995,8481,100,1,133
46.40328248366147,13.224293974453975,0,0,7990,8481,100,1,134
46.40328248366147,13.196360223577859,0,0,7041,8481,100,1,135
46.58388576260042,13.110212736179129,0,0,5488,8481,100,1,136
46.689832727390375,13.110212736179129,0,0,3915,8481,100,1,137
46.689832727390375,13.140015424462655,0,0,2411,8481,100,1,138
46.281119589434475,13.170858770010407,0,0,996,8481,100,1,139
46.281119589434475,13.226206684531263,0,0,44,8481,100,1,140
45.995584760525816,13.170858770010407,0,0,0,8481,100,1,141
46.102124808980186,13.140254871933994,0,0,0,8481,100,1,142
46.102124808980186,13.140254871933994,0,0,0,8481,100,1,143
46.102124808980186,13.140254871933994,0,0,0,8481,100,1,144
45.978706822100676,13.140254871933994,0,0,0,8481,100,1,145
45.978706822100676,13.140254871933994,0,0,0,8481,100,1,146
46.05158957748041,13.226206684531263,0,0,0,8481,100,1,147
46.12471711837421,13.226206684531263,0,0,0,8481,100,1,148
46.141181829497434,13.196360223577859,0,0,0,8481,100,1,149
46.5328033572118,13.196360223577859,0,0,0,8481,100,1,150
46.5328033572118,13.196360223577859,0,0,0,8481,100,1,151
46.5328033572118,13.312227122204506,0,0,0,8481,100,1,152
46.40328248366147,13.196360223577859,0,0,0,8481,100,1,153
46.40328248366147,13.194451829751479,0,0,0,8481,100,1,154
46.40328248366147,13.167076576354358,0,0,0,8481,100,1,155
46.566686254520924,13.080736233294562,0,0,0,8481,100,1,156
46.69068354544671,13.080736233294562,0,0,0,8481,100,1,157
46.69068354544671,13.110212736179129,0,0,0,8481,100,1,158
46.19161904407367,13.140254871933994,0,0,378,8481,100,1,159
46.19161904407367,13.226206684531263,0,0,1261,8481,100,1,160
45.978706822100676,13.140254871933994,0,0,2322,8481,100,1,161
46.09461801387044,13.108078004184378,0,0,3500,8481,100,1,162
46.09461801387044,13.108078004184378,0,0,4725,8481,100,1,163
46.09461801387044,13.138354591792362,0,0,5999,8481,100,1,164
45.97205760377399,13.138354591792362,0,0,7260,8481,100,1,165
45.97205760377399,13.138354591792362,0,0,7990,8481,100,1,166
46.05158957748041,13.226206684531263,0,0,8002,8481,100,1,167
46.141181829497434,13.226206684531263,0,0,7990,8481,100,1,168
46.20682216059776,13.196119753730263,0,0,8006,8481,100,1,169
46.54965872312742,13.196119753730263,0,0,7990,8481,100,1,170
46.54965872312742,13.196119753730263,0,0,8006,8481,100,1,171
46.54965872312742,13.31030197226733,0,0,7990,8481,100,1,172
46.33695844712064,13.31030197226733,0,0,8006,8481,100,1,173
46.33695844712064,13.31030197226733,0,0,7990,8481,100,1,174
46.33695844712064,13.196119753730263,0,0,8006,8481,100,1,175
46.55995200545093,13.196119753730263,0,0,7990,8481,100,1,176
46.69068354544671,13.196360223577859,0,0,8006,8481,100,1,177
46.69068354544671,13.196360223577859,0,0,7990,8481,100,1,178
46.281119589434475,13.140254871933994,0,0,8006,8481,100,1,179
46.281119589434475,13.140254871933994,0,0,7990,8481,100,1,180
45.978706822100676,13.140254871933994,0,0,8006,8481,100,1,181
46.1184771665258,13.109973836148727,0,0,7990,8481,100,1,182
46.1184771665258,13.109973836148727,0,0,8006,8481,100,1,183
46.1184771665258,13.110212736179129,0,0,7990,8481,100,1,184
45.978706822100676,13.110212736179129,0,0,8006,8481,100,1,185
45.978706822100676,13.110212736179129,0,0,7990,8481,100,1,186
46.02759694288138,13.110212736179129,0,0,7982,8481,100,1,187
46.03509282319304,13.196360223577859,0,0,7743,8481,100,1,188
46.12471711837421,13.196360223577859,0,0,6280,8481,100,1,189
46.542926936496706,13.196360223577859,0,0,4677,8481,100,1,190
46.542926936496706,13.226206684531263,0,0,3089,8481,100,1,191
46.54965872312742,13.312227122204506,0,0,1595,8481,100,1,192
46.42569041285638,13.226206684531263,0,0,285,8481,100,1,193
46.42569041285638,13.196360223577859,0,0,0,8481,100,1,194
46.42569041285638,13.196119753730263,0,0,0,8481,100,1,195
46.45929284810145,13.194211464213659,0,0,0,8481,100,1,196
46.58303689066,13.16683664012619,0,0,0,8481,100,1,197
46.58303689066,13.194211464213659,0,0,0,8481,100,1,198
46.18493903541062,13.140015424462655,0,0,0,8481,100,1,199
46.18493903541062,13.224293974453975,0,0,0,8481,100,1,200
45.9712201231046,13.13811524818732,0,0,0,8481,100,1,201
46.09461801387044,13.108078004184378,0,0,0,8481,100,1,202
46.09461801387044,13.108078004184378,0,0,0,8481,100,1,203
46.09461801387044,13.13811524818732,0,0,0,8481,100,1,204
45.9712201231046,13.13811524818732,0,0,0,8481,100,1,205
45.9712201231046,13.13811524818732,0,0,0,8481,100,1,206
46.02759694288138,13.224053065276811,0,0,0,8481,100,1,207
46.02759694288138,13.224053065276811,0,0,0,8481,100,1,208
46.11720664456553,13.194211464213659,0,0,0,8481,100,1,209
46.54207905620511,13.194211464213659,0,0,0,8481,100,1,210
46.54207905620511,13.194211464213659,0,0,0,8481,100,1,211
46.54207905620511,13.31030197226733,0,0,67,8481,100,1,212
46.32941341412026,13.194211464213659,0,0,739,8481,100,1,213
46.32941341412026,13.194211464213659,0,0,1753,8481,100,1,214
46.32941341412026,13.194211464213659,0,0,2919,8481,100,1,215
46.47635286517941,13.164932585237626,0,0,4187,8481,100,1,216
46.57630052249958,13.109973836148727,0,0,5484,8481,100,1,217
46.57630052249958,13.109973836148727,0,0,6822,8481,100,1,218
46.184097676644555,13.13811524818732,0,0,7890,8481,100,1,219
46.184097676644555,13.224053065276811,0,0,7990,8481,100,1,220
45.9712201231046,13.13811524818732,0,0,8006,8481,100,1,221
46.101284715898544,13.109973836148727,0,0,7990,8481,100,1,222
46.101284715898544,13.109973836148727,0,0,8006,8481,100,1,223
46.101284715898544,13.13811524818732,0,0,7990,8481,100,1,224
45.9712201231046,13.16871416304022,0,0,8006,8481,100,1,225
45.9712201231046,13.224053065276811,0,0,7990,8481,100,1,226
46.02759694288138,13.224053065276811,0,0,8006,8481,100,1,227
46.02759694288138,13.224053065276811,0,0,7990,8481,100,1,228
46.11720664456553,13.194211464213659,0,0,8006,8481,100,1,229
46.54207905620511,13.194211464213659,0,0,7990,8481,100,1,230
46.54207905620511,13.194211464213659,0,0,8006,8481,100,1,231
46.54207905620511,13.310059496268073,0,0,7990,8481,100,1,232
46.32941341412026,13.194211464213659,0,0,8006,8481,100,1,233
46.32941341412026,13.194211464213659,0,0,7990,8481,100,1,234
46.32941341412026,13.108078004184378,0,0,8006,8481,100,1,235
46.46963192458492,13.080497870397886,0,0,7990,8481,100,1,236
46.57630052249958,13.108078004184378,0,0,8006,8481,100,1,237
46.57630052249958,13.140015424462655,0,0,7990,8481,100,1,238
46.190777320188936,13.140254871933994,0,0,8006,8481,100,1,239
46.190777320188936,13.140254871933994,0,0,7990,8481,100,1,240
45.978706822100676,13.140254871933994,0,0,7918,8481,100,1,241
46.012636920974295,13.110212736179129,0,0,6741,8481,100,1,242
46.012636920974295,13.110212736179129,0,0,5117,8481,100,1,243
46.012636920974295,13.140254871933994,0,0,3521,8481,100,1,244
45.978706822100676,13.140254871933994,0,0,1966,8481,100,1,245
45.962003297629686,13.140254871933994,0,0,528,8481,100,1,246
45.962003297629686,13.226206684531263,0,0,0,8481,100,1,247
46.03509282319304,13.226206684531263,0,0,0,8481,100,1,248
46.12471711837421,13.196360223577859,0,0,0,8481,100,1,249
46.54965872312742,13.196360223577859,0,0,0,8481,100,1,250
46.54965872312742,13.196360223577859,0,0,0,8481,100,1,251
46.54965872312742,13.312227122204506,0,0,0,8481,100,1,252
46.33611407479774,13.196360223577859,0,0,0,8481,100,1,253
46.33611407479774,13.196360223577859,0,0,0,8481,100,1,254
46.33611407479774,13.196119753730263,0,0,0,8481,100,1,255
46.47719979304145,13.080736233294562,0,0,0,8481,100,1,0
46.58388576260042,13.080736233294562,0,0,0,8481,100,1,1
46.58388576260042,13.196360223577859,0,0,0,8481,100,1,2
46.19161904407367,13.196360223577859,0,0,0,8481,100,1,3
46.19161904407367,13.202020523707667,0,0,0,8481,100,1,4
45.88915915638432,13.140254871933994,0,0,0,8481,100,1,5
46.012636920974295,13.110212736179129,0,0,0,8481,100,1,6
46.012636920974295,13.110212736179129,0,0,0,8481,100,1,7
46.012636920974295,13.110212736179129,0,0,0,8481,100,1,8
45.88915915638432,13.110212736179129,0,0,0,8481,100,1,9
45.88915915638432,13.110212736179129,0,0,0,8481,100,1,10
45.94547437733798,13.196360223577859,0,0,427,8481,100,1,11
46.03509282319304,13.226206684531263,0,0,1360,8481,100,1,12
46.03509282319304,13.226206684531263,0,0,2471,8481,100,1,13
46.45929284810145,13.226206684531263,0,0,3695,8481,100,1,14
46.45929284810145,13.225965670808403,0,0,4957,8481,100,1,15
46.54881047488708,13.226206684531263,0,0,6264,8481,100,1,16
46.33611407479774,13.226206684531263,0,0,7535,8481,100,1,17
46.33611407479774,13.226206684531263,0,0,7990,8481,100,1,18
46.33611407479774,13.196119753730263,0,0,8006,8481,100,1,19
46.45929284810145,13.196119753730263,0,0,7990,8481,100,1,20
46.51098954898172,13.196119753730263,0,0,8006,8481,100,1,21
46.51098954898172,13.196360223577859,0,0,7990,8481,100,1,22
46.09461801387044,13.196119753730263,0,0,8006,8481,100,1,23
46.09461801387044,13.224053065276811,0,0,7990,8481,100,1,24
45.881687038407705,13.16871416304022,0,0,8006,8481,100,1,25
46.00514469715043,13.13811524818732,0,0,7990,8481,100,1,26
46.00514469715043,13.13811524818732,0,0,8006,8481,100,1,27
46.00514469715043,13.13811524818732,0,0,7990,8481,100,1,28
45.881687038407705,13.108078004184378,0,0,8006,8481,100,1,29
45.881687038407705,13.108078004184378,0,0,7990,8481,100,1,30
45.94463713880903,13.109973836148727,0,0,8006,8481,100,1,31
46.034253951597584,13.196119753730263,0,0,7990,8481,100,1,32
46.034253951597584,13.196119753730263,0,0,8006,8481,100,1,33
46.44240530125697,13.196119753730263,0,0,7990,8481,100,1,34
46.44240530125697,13.226206684531263,0,0,8006,8481,100,1,35
46.54207905620511,13.312227122204506,0,0,7990,8481,100,1,36
46.33611407479774,13.226206684531263,0,0,8006,8481,100,1,37
46.33611407479774,13.225965670808403,0,0,7990,8481,100,1,38
46.33611407479774,13.196119753730263,0,0,7990,8481,100,1,39
46.36307589337961,13.16683664012619,0,0,7561,8481,100,1,40
46.51098954898172,13.109973836148727,0,0,6093,8481,100,1,41
46.51098954898172,13.16683664012619,0,0,4617,8481,100,1,42
46.101284715898544,13.140015424462655,0,0,3180,8481,100,1,43
46.101284715898544,13.225965670808403,0,0,1847,8481,100,1,44
45.88832294405596,13.140015424462655,0,0,623,8481,100,1,45
46.00514469715043,13.13811524818732,0,0,2,8481,100,1,46
46.00514469715043,13.13811524818732,0,0,0,8481,100,1,47
46.00514469715043,13.13811524818732,0,0,0,8481,100,1,48
45.881687038407705,13.224053065276811,0,0,0,8481,100,1,49
45.881687038407705,13.224053065276811,0,0,0,8481,100,1,50
45.93799308957088,13.224053065276811,0,0,0,8481,100,1,51
45.94547437733798,13.224053065276811,0,0,0,8481,100,1,52
46.034253951597584,13.196119753730263,0,0,0,8481,100,1,53
46.45929284810145,13.196119753730263,0,0,0,8481,100,1,54
46.45929284810145,13.282331913059085,0,0,0,8481,100,1,55
46.45929284810145,13.31198454097961,0,0,0,8481,100,1,56
46.32941341412026,13.282331913059085,0,0,0,8481,100,1,57
46.32941341412026,13.194211464213659,0,0,0,8481,100,1,58
46.32941341412026,13.16683664012619,0,0,0,8481,100,1,59
46.363920512681204,13.16517241738749,0,0,0,8481,100,1,60
46.493585162635966,13.109973836148727,0,0,0,8481,100,1,61
46.493585162635966,13.109973836148727,0,0,233,8481,100,1,62
46.101284715898544,13.225965670808403,0,0,996,8481,100,1,63
46.101284715898544,13.225965670808403,0,0,1964,8481,100,1,64
45.88832294405596,13.225965670808403,0,0,3041,8481,100,1,65
45.922318585337536,13.140015424462655,0,0,4199,8481,100,1,66
45.922318585337536,13.140015424462655,0,0,5380,8481,100,1,67
45.922318585337536,13.224053065276811,0,0,6606,8481,100,1,68
45.881687038407705,13.254453587623326,0,0,7738,8481,100,1,69
45.864953632097844,13.254453587623326,0,0,7990,8481,100,1,70
45.864953632097844,13.224053065276811,0,0,8006,8481,100,1,71
45.93799308957088,13.224053065276811,0,0,7990,8481,100,1,72
46.02759694288138,13.224053065276811,0,0,8006,8481,100,1,73
46.45257437455426,13.310059496268073,0,0,7990,8481,100,1,74
46.45257437455426,13.310059496268073,0,0,8006,8481,100,1,75
46.45929284810145,13.310059496268073,0,0,7990,8481,100,1,76
46.22993758146664,13.196119753730263,0,0,8006,8481,100,1,77
46.22993758146664,13.196119753730263,0,0,7990,8481,100,1,78
46.22993758146664,13.196119753730263,0,0,8006,8481,100,1,79
46.47635286517941,13.196119753730263,0,0,7990,8481,100,1,80
46.48686173008071,13.194211464213659,0,0,8006,8481,100,1,81
46.48686173008071,13.109973836148727,0,0,7990,8481,100,1,82
46.207936473578876,13.109973836148727,0,0,8006,8481,100,1,83
46.207936473578876,13.140015424462655,0,0,7990,8481,100,1,84
45.90523349765046,13.256370590007151,0,0,8006,8481,100,1,85
45.90523349765046,13.256370590007151,0,0,7990,8481,100,1,86
45.90523349765046,13.194211464213659,0,0,8006,8481,100,1,87
45.89859514656879,13.194211464213659,0,0,7990,8481,100,1,88
45.88832294405596,13.225965670808403,0,0,8006,8481,100,1,89
45.84839511892336,13.225965670808403,0,0,7990,8481,100,1,90
45.84839511892336,13.224053065276811,0,0,7989,8481,100,1,91
45.84839511892336,13.224053065276811,0,0,7200,8481,100,1,92
46.02759694288138,13.224053065276811,0,0,5648,8481,100,1,93
46.45257437455426,13.310059496268073,0,0,4128,8481,100,1,94
46.45257437455426,13.310059496268073,0,0,2658,8481,100,1,95
46.45257437455426,13.310059496268073,0,0,1298,8481,100,1,96
46.223252274960906,13.280411156411013,0,0,174,8481,100,1,97
46.223252274960906,13.194211464213659,0,0,0,8481,100,1,98
46.223252274960906,13.194211464213659,0,0,0,8481,100,1,99
46.47635286517941,13.196119753730263,0,0,0,8481,100,1,100
46.48686173008071,13.196119753730263,0,0,0,8481,100,1,101
46.48686173008071,13.13811524818732,0,0,0,8481,100,1,102
46.11180797829918,13.13811524818732,0,0,0,8481,100,1,103
46.11180797829918,13.13811524818732,0,0,0,8481,100,1,104
45.89859514656879,13.13811524818732,0,0,0,8481,100,1,105
45.89859514656879,13.13811524818732,0,0,0,8481,100,1,106
45.89859514656879,13.13811524818732,0,0,0,8481,100,1,107
45.89859514656879,13.13811524818732,0,0,0,8481,100,1,108
45.881687038407705,13.224053065276811,0,0,0,8481,100,1,109
45.881687038407705,13.224053065276811,0,0,0,8481,100,1,110
45.93799308957088,13.224053065276811,0,0,0,8481,100,1,111
45.93799308957088,13.224053065276811,0,0,0,8481,100,1,112
46.02759694288138,13.194211464213659,0,0,0,8481,100,1,113
46.45257437455426,13.194211464213659,0,0,0,8481,100,1,114
46.45257437455426,13.194211464213659,0,0,86,8481,100,1,115
46.45257437455426,13.31198454097961,0,0,760,8481,100,1,116
46.24654372727271,13.196119753730263,0,0,1724,8481,100,1,117
46.24654372727271,13.196119753730263,0,0,2841,8481,100,1,118
46.24654372727271,13.136220191046197,0,0,4033,8481,100,1,119
46.3697814226888,13.080497870397886,0,0,5294,8481,100,1,120
46.493585162635966,13.080497870397886,0,0,6568,8481,100,1,121
46.493585162635966,13.196119753730263,0,0,7775,8481,100,1,122
46.101284715898544,13.196119753730263,0,0,7990,8481,100,1,123
46.101284715898544,13.225965670808403,0,0,7990,8481,100,1,124
45.881687038407705,13.13811524818732,0,0,8006,8481,100,1,125
45.91567776358311,13.108078004184378,0,0,7990,8481,100,1,126
45.91567776358311,13.108078004184378,0,0,8006,8481,100,1,127
45.91567776358311,13.224053065276811,0,0,7990,8481,100,1,128
45.864953632097844,13.224053065276811,0,0,8006,8481,100,1,129
45.864953632097844,13.108078004184378,0,0,7990,8481,100,1,130
45.93799308957088,13.108078004184378,0,0,8006,8481,100,1,131
45.93799308957088,13.194211464213659,0,0,7990,8481,100,1,132
46.02759694288138,13.194211464213659,0,0,8006,8481,100,1,133
46.352861264527206,13.194211464213659,0,0,7990,8481,100,1,134
46.352861264527206,13.282331913059085,0,0,8006,8481,100,1,135
46.56583769599746,13.31198454097961,0,0,7990,8481,100,1,136
46.34615818204034,13.282331913059085,0,0,8006,8481,100,1,137
46.34615818204034,13.196119753730263,0,0,7990,8481,100,1,138
46.34615818204034,13.194211464213659,0,0,8006,8481,100,1,139
46.34615818204034,13.194211464213659,0,0,7990,8481,100,1,140
46.421577806746,13.194211464213659,0,0,8006,8481,100,1,141
46.421577806746,13.196119753730263,0,0,7990,8481,100,1,142
46.08426597741265,13.196119753730263,0,0,8006,8481,100,1,143
46.08426597741265,13.225965670808403,0,0,7990,8481,100,1,144
45.881687038407705,13.13811524818732,0,0,7728,8481,100,1,145
46.0043056669674,13.10783894237598,0,0,6316,8481,100,1,146
46.0043056669674,13.10783894237598,0,0,4722,8481,100,1,147
46.0043056669674,13.137875638567268,0,0,3182,8481,100,1,148
45.86411715868398,13.137875638567268,0,0,1708,8481,100,1,149
45.86411715868398,13.137875638567268,0,0,386,8481,100,1,150
45.95368121157329,13.224053065276811,0,0,0,8481,100,1,151
45.9712201231046,13.224053065276811,0,0,0,8481,100,1,152
46.02675750321999,13.19397083152502,0,0,0,8481,100,1,153
46.345312932539706,13.19397083152502,0,0,0,8481,100,1,154
46.345312932539706,13.223811888344603,0,0,0,8481,100,1,155
46.55825468186162,13.30981675077235,0,0,0,8481,100,1,156
46.345312932539706,13.223811888344603,0,0,0,8481,100,1,157
46.345312932539706,13.19397083152502,0,0,0,8481,100,1,158
46.2557895900374,13.16469248652977,0,0,0,8481,100,1,159
46.2557895900374,13.078367776638972,0,0,0,8481,100,1,160
46.50341546659274,13.078367776638972,0,0,0,8481,100,1,161
46.50341546659274,13.10783894237598,0,0,0,8481,100,1,162
46.07676138482638,13.137875638567268,0,0,0,8481,100,1,163
46.07676138482638,13.223811888344603,0,0,0,8481,100,1,164
45.88085025981421,13.137875638567268,0,0,0,8481,100,1,165
46.02152873676217,13.137875638567268,0,0,0,8481,100,1,166
46.02152873676217,13.137875638567268,0,0,0,8481,100,1,167
46.02152873676217,13.223811888344603,0,0,0,8481,100,1,168
45.86411715868398,13.223811888344603,0,0,197,8481,100,1,169
45.86411715868398,13.223811888344603,0,0,1006,8481,100,1,170
45.95368121157329,13.25421185625409,0,0,2042,8481,100,1,171
46.02675750321999,13.25421185625409,0,0,3215,8481,100,1,172
46.043251270531165,13.25421185625409,0,0,4447,8481,100,1,173
46.32856847000646,13.280168951634206,0,0,5731,8481,100,1,174
46.32856847000646,13.30981675077235,0,0,7012,8481,100,1,175
46.55825468186162,13.30981675077235,0,0,7965,8481,100,1,176
46.43484238747023,13.30981675077235,0,0,7990,8481,100,1,177
46.43484238747023,13.19397083152502,0,0,7990,8481,100,1,178
46.2557895900374,13.19397083152502,0,0,8006,8481,100,1,179
46.2557895900374,13.19397083152502,0,0,7990,8481,100,1,180
46.414018284612744,13.19397083152502,0,0,8006,8481,100,1,181
46.414018284612744,13.19397083152502,0,0,7990,8481,100,1,182
46.07676138482638,13.16469248652977,0,0,8006,8481,100,1,183
46.07676138482638,13.223811888344603,0,0,7990,8481,100,1,184
45.88085025981421,13.137875638567268,0,0,8006,8481,100,1,185
46.02152873676217,13.137875638567268,0,0,7990,8481,100,1,186
46.02152873676217,13.137875638567268,0,0,8006,8481,100,1,187
46.02152873676217,13.223811888344603,0,0,7990,8481,100,1,188
45.86411715868398,13.25421185625409,0,0,8006,8481,100,1,189
45.86411715868398,13.25421185625409,0,0,7990,8481,100,1,190
45.95368121157329,13.25421185625409,0,0,8006,8481,100,1,191
45.95368121157329,13.25421185625409,0,0,7990,8481,100,1,192
46.02675750321999,13.25421185625409,0,0,8006,8481,100,1,193
46.345312932539706,13.30981675077235,0,0,7990,8481,100,1,194
46.345312932539706,13.30981675077235,0,0,8006,8481,100,1,195
46.55825468186162,13.30981675077235,0,0,7990,8481,100,1,196
46.345312932539706,13.280168951634206,0,0,7995,8481,100,1,197
46.345312932539706,13.280168951634206,0,0,7990,8481,100,1,198
46.345312932539706,13.223811888344603,0,0,7037,8481,100,1,199
46.345312932539706,13.280168951634206,0,0,5465,8481,100,1,200
46.3965832030938,13.223811888344603,0,0,3875,8481,100,1,201
46.3965832030938,13.19397083152502,0,0,2361,8481,100,1,202
46.09377735189571,13.19397083152502,0,0,940,8481,100,1,203
46.09377735189571,13.223811888344603,0,0,30,8481,100,1,204
45.88085025981421,13.25421185625409,0,0,0,8481,100,1,205
46.003465705447866,13.25421185625409,0,0,0,8481,100,1,206
46.003465705447866,13.223811888344603,0,0,0,8481,100,1,207
46.003465705447866,13.223811888344603,0,0,0,8481,100,1,208
45.88085025981421,13.223811888344603,0,0,0,8481,100,1,209
45.88085025981421,13.338091973356141,0,0,0,8481,100,1,210
45.93715528408188,13.338091973356141,0,0,0,8481,100,1,211
46.02675750321999,13.30981675077235,0,0,0,8481,100,1,212
46.02675750321999,13.30981675077235,0,0,0,8481,100,1,213
46.43484238747023,13.340020727543216,0,0,0,8481,100,1,214
46.43484238747023,13.340020727543216,0,0,0,8481,100,1,215
46.55825468186162,13.30981675077235,0,0,0,8481,100,1,216
46.32856847000646,13.30981675077235,0,0,0,8481,100,1,217
46.32856847000646,13.280168951634206,0,0,0,8481,100,1,218
46.32856847000646,13.280168951634206,0,0,0,8481,100,1,219
46.36223033533803,13.30981675077235,0,0,0,8481,100,1,220
46.57545107572119,13.30981675077235,0,0,0,8481,100,1,221
46.57545107572119,13.19397083152502,0,0,13,8481,100,1,222
46.18325538276239,13.19397083152502,0,0,520,8481,100,1,223
46.18325538276239,13.223811888344603,0,0,1443,8481,100,1,224
45.897758059609494,13.25421185625409,0,0,2529,8481,100,1,225
46.0043056669674,13.25421185625409,0,0,3722,8481,100,1,226
46.0043056669674,13.19397083152502,0,0,4961,8481,100,1,227
46.0043056669674,13.19397083152502,0,0,6254,8481,100,1,228
45.88085025981421,13.340020727543216,0,0,7524,8481,100,1,229
45.88085025981421,13.340020727543216,0,0,7990,8481,100,1,230
45.93715528408188,13.340020727543216,0,0,8006,8481,100,1,231
46.02675750321999,13.223811888344603,0,0,7990,8481,100,1,232
46.02675750321999,13.223811888344603,0,0,8006,8481,100,1,233
46.43484238747023,13.339777161122242,0,0,7990,8481,100,1,234
46.43484238747023,13.339777161122242,0,0,8006,8481,100,1,235
46.557404606161484,13.30981675077235,0,0,7990,8481,100,1,236
46.32856847000646,13.280168951634206,0,0,8006,8481,100,1,237
46.32856847000646,13.280168951634206,0,0,7990,8481,100,1,238
46.32856847000646,13.280168951634206,0,0,8006,8481,100,1,239
46.45172718426204,13.280168951634206,0,0,7990,8481,100,1,240
46.57545107572119,13.280168951634206,0,0,8006,8481,100,1,241
46.57545107572119,13.19397083152502,0,0,7990,8481,100,1,242
46.18325538276239,13.19397083152502,0,0,8006,8481,100,1,243
46.18325538276239,13.223811888344603,0,0,7990,8481,100,1,244
45.9864169438274,13.253969856559292,0,0,8006,8481,100,1,245
46.0043056669674,13.253969856559292,0,0,7990,8481,100,1,246
46.0043056669674,13.19372993173037,0,0,8006,8481,100,1,247
46.0043056669674,13.19372993173037,0,0,7990,8481,100,1,248
45.95284217437148,13.223570443702268,0,0,8006,8481,100,1,249
45.95284217437148,13.253969856559292,0,0,7990,8481,100,1,250
46.02010276833877,13.338091973356141,0,0,7990,8481,100,1,251
46.02675750321999,13.338091973356141,0,0,7972,8481,100,1,252
46.11552356307951,13.307649454042588,0,0,6896,8481,100,1,253
46.42728119531127,13.307649454042588,0,0,5342,8481,100,1,254
46.42728119531127,13.307649454042588,0,0,3790,8481,100,1,255
46.557404606161484,13.280168951634206,0,0,2328,8481,100,1,0
46.43484238747023,13.280168951634206,0,0,968,8481,100,1,1
46.43484238747023,13.19397083152502,0,0,46,8481,100,1,2
46.345312932539706,13.19397083152502,0,0,0,8481,100,1,3
46.345312932539706,13.19397083152502,0,0,0,8481,100,1,4
46.48601391446439,13.19397083152502,0,0,0,8481,100,1,5
46.48601391446439,13.19397083152502,0,0,0,8481,100,1,6
46.18325538276239,13.19397083152502,0,0,0,8481,100,1,7
46.18325538276239,13.223811888344603,0,0,0,8481,100,1,8
45.97038171162937,13.25421185625409,0,0,0,8481,100,1,9
46.09377735189571,13.25421185625409,0,0,0,8481,100,1,10
46.09377735189571,13.19397083152502,0,0,0,8481,100,1,11
46.09377735189571,13.19397083152502,0,0,0,8481,100,1,12
45.880012552383505,13.223570443702268,0,0,0,8481,100,1,13
45.880012552383505,13.340020727543216,0,0,0,8481,100,1,14
45.95368121157329,13.340020727543216,0,0,0,8481,100,1,15
46.05907831717175,13.309573735825367,0,0,0,8481,100,1,16
46.11552356307951,13.309573735825367,0,0,0,8481,100,1,17
46.345312932539706,13.30981675077235,0,0,0,8481,100,1,18
46.345312932539706,13.30981675077235,0,0,0,8481,100,1,19
46.646879519352346,13.280168951634206,0,0,398,8481,100,1,20
46.52437791954154,13.280168951634206,0,0,1251,8481,100,1,21
46.52437791954154,13.251081063283461,0,0,2294,8481,100,1,22
46.238168461688495,13.19372993173037,0,0,3439,8481,100,1,23
46.238168461688495,13.19372993173037,0,0,4659,8481,100,1,24
46.50341546659274,13.19372993173037,0,0,5884,8481,100,1,25
46.50341546659274,13.19397083152502,0,0,7140,8481,100,1,26
46.07676138482638,13.16469248652977,0,0,7966,8481,100,1,27
46.07676138482638,13.19397083152502,0,0,7990,8481,100,1,28
45.9695423695044,13.253969856559292,0,0,8006,8481,100,1,29
46.11012509384148,13.253969856559292,0,0,7990,8481,100,1,30
46.11012509384148,13.223570443702268,0,0,8006,8481,100,1,31
46.11012509384148,13.223570443702268,0,0,7990,8481,100,1,32
45.86327975677166,13.253969856559292,0,0,8006,8481,100,1,33
45.86327975677166,13.309573735825367,0,0,7990,8481,100,1,34
46.182412153920964,13.309573735825367,0,0,8006,8481,100,1,35
46.182412153920964,13.309573735825367,0,0,7990,8481,100,1,36
46.32772258799161,13.309573735825367,0,0,8006,8481,100,1,37
46.32772258799161,13.309573735825367,0,0,7990,8481,100,1,38
46.32772258799161,13.309573735825367,0,0,8006,8481,100,1,39
46.541230233549165,13.30981675077235,0,0,7990,8481,100,1,40
46.541230233549165,13.280168951634206,0,0,8006,8481,100,1,41
46.541230233549165,13.19397083152502,0,0,7990,8481,100,1,42
46.20597945227222,13.19397083152502,0,0,8006,8481,100,1,43
46.20597945227222,13.223811888344603,0,0,7990,8481,100,1,44
46.378473680493805,13.223811888344603,0,0,8006,8481,100,1,45
46.378473680493805,13.19372993173037,0,0,7990,8481,100,1,46
45.98725659405943,13.19372993173037,0,0,8006,8481,100,1,47
45.98725659405943,13.223811888344603,0,0,7990,8481,100,1,48
45.98725659405943,13.253969856559292,0,0,7960,8481,100,1,49
46.11012509384148,13.253969856559292,0,0,6945,8481,100,1,50
46.11012509384148,13.221658596169567,0,0,5387,8481,100,1,51
46.11012509384148,13.221658596169567,0,0,3868,8481,100,1,52
45.85664890025542,13.221658596169567,0,0,2403,8481,100,1,53
45.85664890025542,13.307649454042588,0,0,1050,8481,100,1,54
47.06138649012131,13.307649454042588,0,0,70,8481,100,1,55
47.06138649012131,13.307649454042588,0,0,0,8481,100,1,56
46.221565323261366,13.307649454042588,0,0,0,8481,100,1,57
46.221565323261366,13.309573735825367,0,0,0,8481,100,1,58
46.221565323261366,13.309573735825367,0,0,0,8481,100,1,59
46.45087905357547,13.27992647800635,0,0,0,8481,100,1,60
46.45087905357547,13.27992647800635,0,0,0,8481,100,1,61
46.45087905357547,13.27992647800635,0,0,0,8481,100,1,62
46.13198499246485,13.19372993173037,0,0,0,8481,100,1,63
46.13198499246485,13.223570443702268,0,0,0,8481,100,1,64
46.25494503684292,13.19372993173037,0,0,0,8481,100,1,65
46.25494503684292,13.19372993173037,0,0,0,8481,100,1,66
45.89692004347071,13.19372993173037,0,0,0,8481,100,1,67
45.89692004347071,13.223570443702268,0,0,0,8481,100,1,68
45.89692004347071,13.253969856559292,0,0,0,8481,100,1,69
46.127487917426286,13.253969856559292,0,0,0,8481,100,1,70
46.127487917426286,13.19372993173037,0,0,0,8481,100,1,71
46.127487917426286,13.19372993173037,0,0,2,8481,100,1,72
45.86327975677166,13.339777161122242,0,0,440,8481,100,1,73
45.86327975677166,13.339777161122242,0,0,1328,8481,100,1,74
47.042251668463756,13.339777161122242,0,0,2390,8481,100,1,75
47.042251668463756,13.223570443702268,0,0,3565,8481,100,1,76
46.221565323261366,13.223570443702268,0,0,4788,8481,100,1,77
46.221565323261366,13.309573735825367,0,0,6066,8481,100,1,78
46.221565323261366,13.309573735825367,0,0,7340,8481,100,1,79
46.42728119531127,13.307649454042588,0,0,7990,8481,100,1,80
46.42728119531127,13.307649454042588,0,0,8006,8481,100,1,81
46.42728119531127,13.191822398502147,0,0,7990,8481,100,1,82
46.13198499246485,13.191822398502147,0,0,8006,8481,100,1,83
46.13198499246485,13.19372993173037,0,0,7990,8481,100,1,84
46.165429476761545,13.19372993173037,0,0,8006,8481,100,1,85
46.165429476761545,13.223570443702268,0,0,7990,8481,100,1,86
45.89028432328325,13.221658596169567,0,0,8006,8481,100,1,87
45.89028432328325,13.223570443702268,0,0,7990,8481,100,1,88
45.89028432328325,13.253969856559292,0,0,8006,8481,100,1,89
46.11012509384148,13.253969856559292,0,0,7990,8481,100,1,90
46.11012509384148,13.223570443702268,0,0,8006,8481,100,1,91
46.11012509384148,13.223570443702268,0,0,7990,8481,100,1,92
45.773723380385135,13.337848512565419,0,0,8006,8481,100,1,93
45.773723380385135,13.339777161122242,0,0,7990,8481,100,1,94
46.68137718200993,13.339777161122242,0,0,8006,8481,100,1,95
46.68137718200993,13.339777161122242,0,0,7990,8481,100,1,96
46.13198499246485,13.27992647800635,0,0,8006,8481,100,1,97
46.13198499246485,13.27992647800635,0,0,7990,8481,100,1,98
46.13198499246485,13.309573735825367,0,0,8006,8481,100,1,99
46.43399456507177,13.309573735825367,0,0,7990,8481,100,1,100
46.43399456507177,13.309573735825367,0,0,7990,8481,100,1,101
46.43399456507177,13.27992647800635,0,0,7618,8481,100,1,102
46.02591713176756,13.27992647800635,0,0,6109,8481,100,1,103
46.02591713176756,13.27992647800635,0,0,4548,8481,100,1,104
46.165429476761545,13.27992647800635,0,0,3011,8481,100,1,105
46.165429476761545,13.19372993173037,0,0,1570,8481,100,1,106
45.880012552383505,13.19372993173037,0,0,303,8481,100,1,107
45.880012552383505,13.223570443702268,0,0,0,8481,100,1,108
45.880012552383505,13.252053613916909,0,0,0,8481,100,1,109
46.02068846077826,13.252053613916909,0,0,0,8481,100,1,110
46.02068846077826,13.223570443702268,0,0,0,8481,100,1,111
46.02068846077826,13.223570443702268,0,0,0,8481,100,1,112
45.76710547181952,13.252053613916909,0,0,0,8481,100,1,113
45.76710547181952,13.253969856559292,0,0,0,8481,100,1,114
46.69977143828468,13.309573735825367,0,0,0,8481,100,1,115
46.69977143828468,13.309573735825367,0,0,0,8481,100,1,116
46.125315286876486,13.307649454042588,0,0,0,8481,100,1,117
46.125315286876486,13.307649454042588,0,0,0,8481,100,1,118
46.125315286876486,13.307649454042588,0,0,0,8481,100,1,119
46.337766318860545,13.307649454042588,0,0,0,8481,100,1,120
46.337766318860545,13.307649454042588,0,0,0,8481,100,1,121
46.337766318860545,13.27992647800635,0,0,0,8481,100,1,122
46.042410597930186,13.223570443702268,0,0,0,8481,100,1,123
46.042410597930186,13.27992647800635,0,0,0,8481,100,1,124
46.27189486007832,13.223570443702268,0,0,123,8481,100,1,125
46.27189486007832,13.19372993173037,0,0,837,8481,100,1,126
45.880012552383505,13.19372993173037,0,0,1811,8481,100,1,127
45.880012552383505,13.223570443702268,0,0,2932,8481,100,1,128
45.880012552383505,13.253969856559292,0,0,4115,8481,100,1,129
46.01984725326563,13.253969856559292,0,0,5356,8481,100,1,130
46.01984725326563,13.221658596169567,0,0,6600,8481,100,1,131
46.01984725326563,13.221658596169567,0,0,7780,8481,100,1,132
45.76710547181952,13.252053613916909,0,0,7990,8481,100,1,133
45.76710547181952,13.307649454042588,0,0,7990,8481,100,1,134
46.459789298373856,13.307649454042588,0,0,8006,8481,100,1,135
46.459789298373856,13.307649454042588,0,0,7990,8481,100,1,136
46.13198499246485,13.307649454042588,0,0,8006,8481,100,1,137
46.13198499246485,13.309573735825367,0,0,7990,8481,100,1,138
46.13198499246485,13.309573735825367,0,0,8006,8481,100,1,139
46.34446674479903,13.309573735825367,0,0,7990,8481,100,1,140
46.34446674479903,13.309573735825367,0,0,8006,8481,100,1,141
46.34446674479903,13.27992647800635,0,0,7990,8481,100,1,142
46.02591713176756,13.223570443702268,0,0,8006,8481,100,1,143
46.02591713176756,13.223570443702268,0,0,7990,8481,100,1,144
46.182412153920964,13.223570443702268,0,0,8006,8481,100,1,145
46.182412153920964,13.223570443702268,0,0,7990,8481,100,1,146
45.880012552383505,13.223570443702268,0,0,8006,8481,100,1,147
45.880012552383505,13.253969856559292,0,0,7990,8481,100,1,148
45.79048890176849,13.253969856559292,0,0,8006,8481,100,1,149
46.02068846077826,13.253969856559292,0,0,7990,8481,100,1,150
46.02068846077826,13.221416988684386,0,0,8006,8481,100,1,151
46.02068846077826,13.221416988684386,0,0,7990,8481,100,1,152
45.76710547181952,13.307649454042588,0,0,7990,8481,100,1,153
45.76710547181952,13.337848512565419,0,0,7360,8481,100,1,154
46.459789298373856,13.337848512565419,0,0,5796,8481,100,1,155
46.459789298373856,13.307649454042588,0,0,4246,8481,100,1,156
46.124472410670855,13.307406275193664,0,0,2730,8481,100,1,157
46.124472410670855,13.307406275193664,0,0,1319,8481,100,1,158
46.124472410670855,13.309573735825367,0,0,166,8481,100,1,159
46.34446674479903,13.309573735825367,0,0,0,8481,100,1,160
46.34446674479903,13.27992647800635,0,0,0,8481,100,1,161
46.34446674479903,13.27992647800635,0,0,0,8481,100,1,162
46.03575384289749,13.27992647800635,0,0,0,8481,100,1,163
46.03575384289749,13.27992647800635,0,0,0,8481,100,1,164
46.27189486007832,13.27992647800635,0,0,0,8481,100,1,165
46.27189486007832,13.19372993173037,0,0,0,8481,100,1,166
45.880012552383505,13.19372993173037,0,0,0,8481,100,1,167
45.880012552383505,13.223570443702268,0,0,0,8481,100,1,168
45.79048890176849,13.223570443702268,0,0,0,8481,100,1,169
45.931258338404106,13.223570443702268,0,0,0,8481,100,1,170
45.931258338404106,13.19372993173037,0,0,0,8481,100,1,171
45.931258338404106,13.19372993173037,0,0,0,8481,100,1,172
45.757133064211494,13.309573735825367,0,0,0,8481,100,1,173
45.757133064211494,13.309573735825367,0,0,0,8481,100,1,174
45.87254100423605,13.307406275193664,0,0,0,8481,100,1,175
45.92883583137716,13.248681225036826,0,0,0,8481,100,1,176
45.978928067752385,13.248681225036826,0,0,115,8481,100,1,177
46.124472410670855,13.39346284063698,0,0,847,8481,100,1,178
46.124472410670855,13.395644317840649,0,0,1863,8481,100,1,179
46.45087905357547,13.39346284063698,0,0,3037,8481,100,1,180
46.361383838713934,13.27992647800635,0,0,4282,8481,100,1,181
46.361383838713934,13.27992647800635,0,0,5589,8481,100,1,182
46.03575384289749,13.27992647800635,0,0,6894,8481,100,1,183
46.03575384289749,13.307649454042588,0,0,7934,8481,100,1,184
46.32378190681259,13.309573735825367,0,0,7990,8481,100,1,185
46.32378190681259,13.309573735825367,0,0,7990,8481,100,1,186
45.89608109830847,13.253727588583985,0,0,8006,8481,100,1,187
45.89608109830847,13.253727588583985,0,0,7990,8481,100,1,188
45.78965190205032,13.253727588583985,0,0,8006,8481,100,1,189
45.906524953716094,13.251811451004908,0,0,7990,8481,100,1,190
45.906524953716094,13.16230829369422,0,0,8006,8481,100,1,191
45.906524953716094,13.16230829369422,0,0,7990,8481,100,1,192
45.75051755425338,13.221416988684386,0,0,8006,8481,100,1,193
45.75051755425338,13.307649454042588,0,0,7990,8481,100,1,194
45.86327975677166,13.307649454042588,0,0,8006,8481,100,1,195
45.92883583137716,13.191581336232126,0,0,7990,8481,100,1,196
45.96205624144944,13.191581336232126,0,0,8006,8481,100,1,197
46.124472410670855,13.395644317840649,0,0,7990,8481,100,1,198
46.124472410670855,13.395644317840649,0,0,8006,8481,100,1,199
46.45002998265248,13.395399460212184,0,0,7990,8481,100,1,200
46.35468096692284,13.279683735572583,0,0,8006,8481,100,1,201
46.35468096692284,13.279683735572583,0,0,7990,8481,100,1,202
46.042410597930186,13.309573735825367,0,0,8006,8481,100,1,203
46.042410597930186,13.309573735825367,0,0,7990,8481,100,1,204
46.3054670594414,13.309330451472372,0,0,8005,8481,100,1,205
46.3054670594414,13.309330451472372,0,0,7990,8481,100,1,206
45.9864169438274,13.223570443702268,0,0,7165,8481,100,1,207
45.9864169438274,13.223570443702268,0,0,5552,8481,100,1,208
45.79048890176849,13.309330451472372,0,0,3907,8481,100,1,209
45.91316277964004,13.309330451472372,0,0,2330,8481,100,1,210
45.91316277964004,13.193488764874559,0,0,839,8481,100,1,211
45.91316277964004,13.193488764874559,0,0,7,8481,100,1,212
45.74968152695683,13.307406275193664,0,0,0,8481,100,1,213
45.74968152695683,13.307406275193664,0,0,0,8481,100,1,214
45.85581093355563,13.307406275193664,0,0,0,8481,100,1,215
45.87254100423605,13.277763845422895,0,0,0,8481,100,1,216
45.92883583137716,13.277763845422895,0,0,0,8481,100,1,217
46.124472410670855,13.39346284063698,0,0,0,8481,100,1,218
46.124472410670855,13.39346284063698,0,0,0,8481,100,1,219
46.44331453996632,13.307406275193664,0,0,0,8481,100,1,220
46.36053640366493,13.277763845422895,0,0,0,8481,100,1,221
46.36053640366493,13.277763845422895,0,0,0,8481,100,1,222
46.03491260330312,13.307406275193664,0,0,0,8481,100,1,223
46.03491260330312,13.307406275193664,0,0,0,8481,100,1,224
46.298772516720774,13.307406275193664,0,0,0,8481,100,1,225
46.298772516720774,13.193488764874559,0,0,0,8481,100,1,226
45.89608109830847,13.193488764874559,0,0,0,8481,100,1,227
45.89608109830847,13.221416988684386,0,0,0,8481,100,1,228
45.783031932524324,13.307649454042588,0,0,0,8481,100,1,229
45.82370716671851,13.307649454042588,0,0,0,8481,100,1,230
45.82370716671851,13.191581336232126,0,0,167,8481,100,1,231
45.82370716671851,13.191581336232126,0,0,967,8481,100,1,232
45.74968152695683,13.307406275193664,0,0,2019,8481,100,1,233
45.74968152695683,13.307406275193664,0,0,3215,8481,100,1,234
45.85581093355563,13.307406275193664,0,0,4475,8481,100,1,235
45.92883583137716,13.307406275193664,0,0,5792,8481,100,1,236
45.96205624144944,13.307406275193664,0,0,7105,8481,100,1,237
46.141105068843494,13.39346284063698,0,0,7987,8481,100,1,238
46.141105068843494,13.39346284063698,0,0,7990,8481,100,1,239
46.35383389937732,13.36401129247051,0,0,7990,8481,100,1,240
46.35383389937732,13.307406275193664,0,0,8006,8481,100,1,241
46.35383389937732,13.277763845422895,0,0,7990,8481,100,1,242
46.03491260330312,13.277763845422895,0,0,8006,8481,100,1,243
46.03491260330312,13.307406275193664,0,0,7990,8481,100,1,244
46.298772516720774,13.307406275193664,0,0,8006,8481,100,1,245
46.298772516720774,13.191581336232126,0,0,7990,8481,100,1,246
45.978928067752385,13.191581336232126,0,0,8006,8481,100,1,247
45.978928067752385,13.221416988684386,0,0,7990,8481,100,1,248
45.783031932524324,13.251811451004908,0,0,8006,8481,100,1,249
45.906524953716094,13.251811451004908,0,0,7990,8481,100,1,250
45.906524953716094,13.191581336232126,0,0,8006,8481,100,1,251
45.906524953716094,13.191581336232126,0,0,7990,8481,100,1,252
45.76626914140178,13.307406275193664,0,0,8006,8481,100,1,253
45.76626914140178,13.307406275193664,0,0,7990,8481,100,1,254
45.76543188499846,13.307406275193664,0,0,8006,8481,100,1,255
45.76626914140178,13.30716282709697,0,0,7990,8481,100,1,0
45.92883583137716,13.30716282709697,0,0,8006,8481,100,1,1
46.141105068843494,13.39346284063698,0,0,7990,8481,100,1,2
46.141105068843494,13.39346284063698,0,0,7990,8481,100,1,3
46.44331453996632,13.39346284063698,0,0,7704,8481,100,1,4
46.33691956040676,13.36401129247051,0,0,6255,8481,100,1,5
46.33691956040676,13.307406275193664,0,0,4718,8481,100,1,6
46.124472410670855,13.307406275193664,0,0,3207,8481,100,1,7
46.124472410670855,13.307406275193664,0,0,1796,8481,100,1,8
46.298772516720774,13.307406275193664,0,0,499,8481,100,1,9
46.298772516720774,13.277763845422895,0,0,0,8481,100,1,10
45.978928067752385,13.277763845422895,0,0,0,8481,100,1,11
45.978928067752385,13.221175113691247,0,0,0,8481,100,1,12
45.78219436945949,13.337360781316924,0,0,0,8481,100,1,13
45.9056851314476,13.221175113691247,0,0,0,8481,100,1,14
45.9056851314476,13.191340007057807,0,0,0,8481,100,1,15
45.9056851314476,13.191340007057807,0,0,0,8481,100,1,16
45.76626914140178,13.307406275193664,0,0,0,8481,100,1,17
45.76626914140178,13.307406275193664,0,0,0,8481,100,1,18
45.76626914140178,13.307406275193664,0,0,0,8481,100,1,19
45.85581093355563,13.248681225036826,0,0,0,8481,100,1,20
45.92883583137716,13.248681225036826,0,0,0,8481,100,1,21
46.140260955123956,13.39346284063698,0,0,0,8481,100,1,22
46.140260955123956,13.39346284063698,0,0,0,8481,100,1,23
46.44331453996632,13.393217818205919,0,0,0,8481,100,1,24
46.33607186442151,13.277763845422895,0,0,0,8481,100,1,25
46.33607186442151,13.277763845422895,0,0,0,8481,100,1,26
46.12362860123217,13.277763845422895,0,0,196,8481,100,1,27
46.12362860123217,13.307406275193664,0,0,976,8481,100,1,28
46.29792551860444,13.307406275193664,0,0,1979,8481,100,1,29
46.29792551860444,13.30716282709697,0,0,3120,8481,100,1,30
45.978086920928234,13.25156901996998,0,0,4326,8481,100,1,31
45.978086920928234,13.25156901996998,0,0,5590,8481,100,1,32
45.78219436945949,13.25156901996998,0,0,6857,8481,100,1,33
45.9056851314476,13.25156901996998,0,0,7912,8481,100,1,34
45.9056851314476,13.191340007057807,0,0,7990,8481,100,1,35
45.9056851314476,13.191340007057807,0,0,7990,8481,100,1,36
45.76543188499846,13.191340007057807,0,0,8006,8481,100,1,37
45.76543188499846,13.30716282709697,0,0,7990,8481,100,1,38
45.85497203905859,13.30716282709697,0,0,8006,8481,100,1,39
45.85497203905859,13.248438851266817,0,0,7990,8481,100,1,40
45.92799560094944,13.248438851266817,0,0,8006,8481,100,1,41
46.12362860123217,13.393217818205919,0,0,7990,8481,100,1,42
46.12362860123217,13.393217818205919,0,0,8006,8481,100,1,43
46.442464897572066,13.307406275193664,0,0,7990,8481,100,1,44
46.442464897572066,13.27752093961017,0,0,8006,8481,100,1,45
46.442464897572066,13.27752093961017,0,0,7990,8481,100,1,46
46.12362860123217,13.337360781316924,0,0,8006,8481,100,1,47
46.12362860123217,13.337360781316924,0,0,7990,8481,100,1,48
46.38733191189083,13.30716282709697,0,0,8006,8481,100,1,49
46.38733191189083,13.221416988684386,0,0,7990,8481,100,1,50
45.978086920928234,13.221416988684386,0,0,8006,8481,100,1,51
45.978086920928234,13.221175113691247,0,0,7990,8481,100,1,52
45.78219436945949,13.25156901996998,0,0,8006,8481,100,1,53
45.906524953716094,13.221416988684386,0,0,7990,8481,100,1,54
45.906524953716094,13.221416988684386,0,0,8006,8481,100,1,55
45.906524953716094,13.191340007057807,0,0,7990,8481,100,1,56
45.76543188499846,13.191340007057807,0,0,7679,8481,100,1,57
45.76543188499846,13.30716282709697,0,0,6212,8481,100,1,58
45.96121540328153,13.30716282709697,0,0,4595,8481,100,1,59
46.017579953767125,13.27752093961017,0,0,3039,8481,100,1,60
46.067573864801595,13.27752093961017,0,0,1552,8481,100,1,61
46.12362860123217,13.393217818205919,0,0,269,8481,100,1,62
46.12362860123217,13.393217818205919,0,0,0,8481,100,1,63
46.442464897572066,13.393217818205919,0,0,0,8481,100,1,64
46.442464897572066,13.27752093961017,0,0,0,8481,100,1,65
46.442464897572066,13.27752093961017,0,0,0,8481,100,1,66
46.12362860123217,13.30716282709697,0,0,0,8481,100,1,67
46.12362860123217,13.30716282709697,0,0,0,8481,100,1,68
46.37007264006791,13.30716282709697,0,0,0,8481,100,1,69
46.37007264006791,13.30716282709697,0,0,0,8481,100,1,70
45.96121540328153,13.221175113691247,0,0,0,8481,100,1,71
45.96121540328153,13.221175113691247,0,0,0,8481,100,1,72
45.78219436945949,13.337360781316924,0,0,0,8481,100,1,73
45.995132594319955,13.337360781316924,0,0,0,8481,100,1,74
45.995132594319955,13.191340007057807,0,0,0,8481,100,1,75
45.995132594319955,13.191340007057807,0,0,0,8481,100,1,76
45.76543188499846,13.30716282709697,0,0,0,8481,100,1,77
45.76543188499846,13.30716282709697,0,0,0,8481,100,1,78
46.33302847365915,13.30716282709697,0,0,0,8481,100,1,79
46.33302847365915,13.27752093961017,0,0,1,8481,100,1,80
46.12362860123217,13.27752093961017,0,0,429,8481,100,1,81
46.12362860123217,13.393217818205919,0,0,1323,8481,100,1,82
46.12362860123217,13.393217818205919,0,0,2393,8481,100,1,83
46.42558346754053,13.393217818205919,0,0,3581,8481,100,1,84
46.42558346754053,13.27752093961017,0,0,4819,8481,100,1,85
46.42558346754053,13.27752093961017,0,0,6105,8481,100,1,86
46.10717015368568,13.27752093961017,0,0,7373,8481,100,1,87
46.10717015368568,13.30716282709697,0,0,7990,8481,100,1,88
46.24656637251194,13.30716282709697,0,0,8006,8481,100,1,89
46.24656637251194,13.191340007057807,0,0,7990,8481,100,1,90
45.96121540328153,13.191340007057807,0,0,8006,8481,100,1,91
45.96121540328153,13.30716282709697,0,0,7990,8481,100,1,92
45.871701803676075,13.337360781316924,0,0,8006,8481,100,1,93
46.01235222990421,13.30716282709697,0,0,7990,8481,100,1,94
46.01235222990421,13.191340007057807,0,0,8006,8481,100,1,95
46.01235222990421,13.191340007057807,0,0,7990,8481,100,1,96
45.76543188499846,13.30716282709697,0,0,8006,8481,100,1,97
45.76543188499846,13.30716282709697,0,0,7990,8481,100,1,98
46.67292127335835,13.30716282709697,0,0,8006,8481,100,1,99
46.67292127335835,13.30716282709697,0,0,7990,8481,100,1,100
46.140260955123956,13.30716282709697,0,0,8006,8481,100,1,101
46.140260955123956,13.393217818205919,0,0,7990,8481,100,1,102
46.21319270536316,13.393217818205919,0,0,8006,8481,100,1,103
46.33607186442151,13.363766808831391,0,0,7990,8481,100,1,104
46.33607186442151,13.30716282709697,0,0,8006,8481,100,1,105
46.33607186442151,13.30716282709697,0,0,7990,8481,100,1,106
46.10717015368568,13.30716282709697,0,0,8006,8481,100,1,107
46.10717015368568,13.30716282709697,0,0,7990,8481,100,1,108
46.15706702736348,13.30716282709697,0,0,7990,8481,100,1,109
46.15706702736348,13.30716282709697,0,0,7277,8481,100,1,110
45.871701803676075,13.30716282709697,0,0,5709,8481,100,1,111
45.871701803676075,13.30716282709697,0,0,4176,8481,100,1,112
45.871701803676075,13.30716282709697,0,0,2687,8481,100,1,113
45.995132594319955,13.30716282709697,0,0,1302,8481,100,1,114
45.995132594319955,13.191340007057807,0,0,167,8481,100,1,115
45.995132594319955,13.191340007057807,0,0,0,8481,100,1,116
45.76543188499846,13.30716282709697,0,0,0,8481,100,1,117
45.76543188499846,13.30716282709697,0,0,0,8481,100,1,118
46.944671586763256,13.30716282709697,0,0,0,8481,100,1,119
46.944671586763256,13.27752093961017,0,0,0,8481,100,1,120
46.15706702736348,13.27752093961017,0,0,0,8481,100,1,121
46.15706702736348,13.393217818205919,0,0,0,8481,100,1,122
46.19676616668694,13.393217818205919,0,0,0,8481,100,1,123
46.33607186442151,13.393217818205919,0,0,0,8481,100,1,124
46.33607186442151,13.363766808831391,0,0,0,8481,100,1,125
46.33607186442151,13.27752093961017,0,0,0,8481,100,1,126
46.10717015368568,13.27752093961017,0,0,0,8481,100,1,127
46.10717015368568,13.30716282709697,0,0,0,8481,100,1,128
46.15706702736348,13.30716282709697,0,0,0,8481,100,1,129
46.15706702736348,13.30716282709697,0,0,0,8481,100,1,130
45.871701803676075,13.30716282709697,0,0,0,8481,100,1,131
45.871701803676075,13.30716282709697,0,0,1,8481,100,1,132
45.871701803676075,13.337360781316924,0,0,417,8481,100,1,133
46.01235222990421,13.30716282709697,0,0,1274,8481,100,1,134
46.01235222990421,13.191340007057807,0,0,2311,8481,100,1,135
46.01235222990421,13.191340007057807,0,0,3470,8481,100,1,136
45.76543188499846,13.221175113691247,0,0,4685,8481,100,1,137
45.76543188499846,13.30716282709697,0,0,5952,8481,100,1,138
47.328740159392865,13.30716282709697,0,0,7208,8481,100,1,139
47.328740159392865,13.248438851266817,0,0,7990,8481,100,1,140
46.26351312544038,13.248438851266817,0,0,7997,8481,100,1,141
46.26351312544038,13.363766808831391,0,0,7990,8481,100,1,142
46.21319270536316,13.393217818205919,0,0,8006,8481,100,1,143
46.31933074066644,13.363766808831391,0,0,7990,8481,100,1,144
46.31933074066644,13.27752093961017,0,0,8006,8481,100,1,145
46.31933074066644,13.27752093961017,0,0,7990,8481,100,1,146
46.03407043228774,13.30716282709697,0,0,8006,8481,100,1,147
46.03407043228774,13.30716282709697,0,0,7990,8481,100,1,148
46.05073513232294,13.30716282709697,0,0,8006,8481,100,1,149
46.05073513232294,13.30716282709697,0,0,7990,8481,100,1,150
45.871701803676075,13.221175113691247,0,0,8006,8481,100,1,151
45.871701803676075,13.221175113691247,0,0,7990,8481,100,1,152
45.871701803676075,13.30716282709697,0,0,8006,8481,100,1,153
46.01235222990421,13.30716282709697,0,0,7990,8481,100,1,154
46.01235222990421,13.191340007057807,0,0,8006,8481,100,1,155
46.01235222990421,13.191340007057807,0,0,7990,8481,100,1,156
45.764593702765424,13.27752093961017,0,0,8006,8481,100,1,157
45.764593702765424,13.306919109797809,0,0,7990,8481,100,1,158
47.456950995687436,13.306919109797809,0,0,8006,8481,100,1,159
47.456950995687436,13.277277765194631,0,0,7990,8481,100,1,160
46.27978528677671,13.277277765194631,0,0,7990,8481,100,1,161
46.27978528677671,13.393217818205919,0,0,7602,8481,100,1,162
46.12362860123217,13.393217818205919,0,0,6055,8481,100,1,163
46.229792836282144,13.393217818205919,0,0,4444,8481,100,1,164
46.229792836282144,13.27752093961017,0,0,2849,8481,100,1,165
46.229792836282144,13.27752093961017,0,0,1347,8481,100,1,166
46.017579953767125,13.361835107979193,0,0,145,8481,100,1,167
46.017579953767125,13.361835107979193,0,0,0,8481,100,1,168
46.017579953767125,13.30716282709697,0,0,0,8481,100,1,169
45.953730415421546,13.304995696586218,0,0,0,8481,100,1,170
45.854132216920426,13.304995696586218,0,0,0,8481,100,1,171
45.854132216920426,13.220932971235165,0,0,0,8481,100,1,172
45.78219436945949,13.30716282709697,0,0,0,8481,100,1,173
46.01150952538792,13.220932971235165,0,0,0,8481,100,1,174
46.01150952538792,13.191098411024106,0,0,0,8481,100,1,175
46.01150952538792,13.191098411024106,0,0,0,8481,100,1,176
45.764593702765424,13.306919109797809,0,0,0,8481,100,1,177
45.764593702765424,13.306919109797809,0,0,0,8481,100,1,178
47.82622800122303,13.306919109797809,0,0,0,8481,100,1,179
47.82622800122303,13.248196209482323,0,0,0,8481,100,1,180
46.52860216889941,13.248196209482323,0,0,0,8481,100,1,181
46.45866784110994,13.392972524831507,0,0,0,8481,100,1,182
46.11611716366227,13.392972524831507,0,0,0,8481,100,1,183
46.229792836282144,13.391036673258036,0,0,0,8481,100,1,184
46.229792836282144,13.363766808831391,0,0,0,8481,100,1,185
46.229792836282144,13.363522054844717,0,0,0,8481,100,1,186
46.03322733000811,13.305239308216315,0,0,164,8481,100,1,187
45.953730415421546,13.363522054844717,0,0,959,8481,100,1,188
45.953730415421546,13.305239308216315,0,0,1999,8481,100,1,189
45.953730415421546,13.304995696586218,0,0,3172,8481,100,1,190
45.774738535969185,13.304995696586218,0,0,4391,8481,100,1,191
45.774738535969185,13.304995696586218,0,0,5656,8481,100,1,192
45.774738535969185,13.306919109797809,0,0,6914,8481,100,1,193
45.915459552721686,13.306919109797809,0,0,7930,8481,100,1,194
45.915459552721686,13.18919173880721,0,0,7990,8481,100,1,195
45.915459552721686,13.18919173880721,0,0,7990,8481,100,1,196
45.67506126414014,13.306919109797809,0,0,8006,8481,100,1,197
45.67506126414014,13.306919109797809,0,0,7990,8481,100,1,198
47.95707762638258,13.306919109797809,0,0,8006,8481,100,1,199
47.95707762638258,13.275358636412317,0,0,7990,8481,100,1,200
46.546514838121276,13.275358636412317,0,0,8006,8481,100,1,201
46.45866784110994,13.391036673258036,0,0,7990,8481,100,1,202
46.12362860123217,13.392972524831507,0,0,8006,8481,100,1,203
46.139415907991925,13.392972524831507,0,0,7990,8481,100,1,204
46.139415907991925,13.363522054844717,0,0,8006,8481,100,1,205
46.139415907991925,13.363522054844717,0,0,7990,8481,100,1,206
46.01008578669,13.391036673258036,0,0,8006,8481,100,1,207
45.93703596458593,13.391036673258036,0,0,7990,8481,100,1,208
45.93703596458593,13.306919109797809,0,0,8006,8481,100,1,209
45.93703596458593,13.304995696586218,0,0,7990,8481,100,1,210
45.78135588022581,13.306919109797809,0,0,8006,8481,100,1,211
45.78135588022581,13.306919109797809,0,0,7990,8481,100,1,212
45.78135588022581,13.306919109797809,0,0,8006,8481,100,1,213
45.92209724006365,13.306919109797809,0,0,7990,8481,100,1,214
45.92209724006365,13.220932971235165,0,0,7944,8481,100,1,215
45.92209724006365,13.220932971235165,0,0,6828,8481,100,1,216
45.67506126414014,13.277277765194631,0,0,5182,8481,100,1,217
45.67506126414014,13.306919109797809,0,0,3554,8481,100,1,218
48.11007593660546,13.306919109797809,0,0,1962,8481,100,1,219
48.11007593660546,13.277277765194631,0,0,490,8481,100,1,220
46.67206647068819,13.277277765194631,0,0,0,8481,100,1,221
46.45866784110994,13.392972524831507,0,0,0,8481,100,1,222
46.12362860123217,13.392972524831507,0,0,0,8481,100,1,223
46.12362860123217,13.392972524831507,0,0,0,8481,100,1,224
46.12362860123217,13.363522054844717,0,0,0,8481,100,1,225
46.12278385871747,13.363522054844717,0,0,0,8481,100,1,226
46.03322733000811,13.392972524831507,0,0,0,8481,100,1,227
45.93703596458593,13.392972524831507,0,0,0,8481,100,1,228
45.93703596458593,13.391036673258036,0,0,0,8481,100,1,229
45.93703596458593,13.30716282709697,0,0,0,8481,100,1,230
45.78135588022581,13.220932971235165,0,0,0,8481,100,1,231
45.78135588022581,13.220932971235165,0,0,0,8481,100,1,232
45.78135588022581,13.220932971235165,0,0,0,8481,100,1,233
45.92209724006365,13.277277765194631,0,0,0,8481,100,1,234
45.92209724006365,13.277277765194631,0,0,0,8481,100,1,235
45.92209724006365,13.277277765194631,0,0,0,8481,100,1,236
45.66845928395594,13.277277765194631,0,0,0,8481,100,1,237
45.66845928395594,13.277277765194631,0,0,0,8481,100,1,238
47.95014579821598,13.275358636412317,0,0,0,8481,100,1,239
47.95014579821598,13.24628128421609,0,0,0,8481,100,1,240
46.539786895999256,13.24628128421609,0,0,0,8481,100,1,241
46.36922338399337,13.392972524831507,0,0,363,8481,100,1,242
46.11611716366227,13.392972524831507,0,0,1333,8481,100,1,243
46.12278385871747,13.361590460111062,0,0,2519,8481,100,1,244
46.12278385871747,13.277277765194631,0,0,3816,8481,100,1,245
46.12278385871747,13.277277765194631,0,0,5191,8481,100,1,246
46.01008578669,13.391036673258036,0,0,6575,8481,100,1,247
45.93703596458593,13.391036673258036,0,0,7824,8481,100,1,248
45.93703596458593,13.33518873293534,0,0,7990,8481,100,1,249
45.93703596458593,13.304995696586218,0,0,7990,8481,100,1,250
45.78135588022581,13.304995696586218,0,0,8006,8481,100,1,251
45.78135588022581,13.304995696586218,0,0,7990,8481,100,1,252
45.78135588022581,13.306919109797809,0,0,8006,8481,100,1,253
45.92209724006365,13.306919109797809,0,0,7990,8481,100,1,254
45.92209724006365,13.306919109797809,0,0,8006,8481,100,1,255
45.92209724006365,13.277277765194631,0,0,7990,8481,100,1,0
45.66845928395594,13.277277765194631,0,0,8006,8481,100,1,1
45.66845928395594,13.304995696586218,0,0,7990,8481,100,1,2
47.8193150863673,13.304995696586218,0,0,8006,8481,100,1,3
47.8193150863673,13.277034322221528,0,0,7990,8481,100,1,4
46.564598748948306,13.277034322221528,0,0,8006,8481,100,1,5
46.3625210679928,13.391036673258036,0,0,7990,8481,100,1,6
46.03322733000811,13.392972524831507,0,0,8006,8481,100,1,7
46.11611716366227,13.391036673258036,0,0,7990,8481,100,1,8
46.11611716366227,13.361590460111062,0,0,8006,8481,100,1,9
46.11611716366227,13.361590460111062,0,0,7990,8481,100,1,10
45.93703596458593,13.391036673258036,0,0,8006,8481,100,1,11
45.93703596458593,13.421036146340171,0,0,7990,8481,100,1,12
45.93703596458593,13.421036146340171,0,0,7991,8481,100,1,13
45.93703596458593,13.304751815911832,0,0,7990,8481,100,1,14
45.75714003724692,13.304751815911832,0,0,7007,8481,100,1,15
45.75714003724692,13.21877968188554,0,0,5438,8481,100,1,16
45.685251879046476,13.304995696586218,0,0,3862,8481,100,1,17
45.914617921991706,13.304751815911832,0,0,2367,8481,100,1,18
45.914617921991706,13.304751815911832,0,0,964,8481,100,1,19
45.914617921991706,13.18919173880721,0,0,39,8481,100,1,20
45.6510053546238,13.18919173880721,0,0,0,8481,100,1,21
45.6510053546238,13.304751815911832,0,0,0,8481,100,1,22
47.94926687167133,13.304751815911832,0,0,0,8481,100,1,23
47.94926687167133,13.275115298985474,0,0,0,8481,100,1,24
46.55701478685018,13.275115298985474,0,0,0,8481,100,1,25
46.36167124262177,13.390791215451879,0,0,0,8481,100,1,26
46.11611716366227,13.391036673258036,0,0,0,8481,100,1,27
46.11611716366227,13.390791215451879,0,0,0,8481,100,1,28
46.11611716366227,13.361590460111062,0,0,0,8481,100,1,29
46.11611716366227,13.361590460111062,0,0,0,8481,100,1,30
45.92051602308166,13.391036673258036,0,0,0,8481,100,1,31
45.92051602308166,13.391036673258036,0,0,0,8481,100,1,32
45.863390701785534,13.390791215451879,0,0,0,8481,100,1,33
45.863390701785534,13.304751815911832,0,0,0,8481,100,1,34
45.77389948465654,13.21877968188554,0,0,0,8481,100,1,35
45.77389948465654,13.21877968188554,0,0,0,8481,100,1,36
45.77389948465654,13.304751815911832,0,0,23,8481,100,1,37
45.82522674563972,13.304751815911832,0,0,555,8481,100,1,38
45.82522674563972,13.275115298985474,0,0,1472,8481,100,1,39
45.82522674563972,13.275115298985474,0,0,2570,8481,100,1,40
45.667622180742796,13.275115298985474,0,0,3761,8481,100,1,41
45.667622180742796,13.304751815911832,0,0,5030,8481,100,1,42
47.83950259478793,13.304751815911832,0,0,6318,8481,100,1,43
47.83950259478793,13.275115298985474,0,0,7612,8481,100,1,44
46.58199959099191,13.275115298985474,0,0,7990,8481,100,1,45
46.36167124262177,13.390791215451879,0,0,7990,8481,100,1,46
46.11611716366227,13.390791215451879,0,0,8006,8481,100,1,47
46.11611716366227,13.390791215451879,0,0,7990,8481,100,1,48
46.11611716366227,13.36134554205422,0,0,8006,8481,100,1,49
46.115271854876724,13.36134554205422,0,0,7990,8481,100,1,50
45.91967429966653,13.390791215451879,0,0,8006,8481,100,1,51
45.91967429966653,13.390791215451879,0,0,7990,8481,100,1,52
45.863390701785534,13.390791215451879,0,0,8006,8481,100,1,53
45.863390701785534,13.304751815911832,0,0,7990,8481,100,1,54
45.77389948465654,13.304751815911832,0,0,8006,8481,100,1,55
45.77389948465654,13.275115298985474,0,0,7990,8481,100,1,56
45.77389948465654,13.304751815911832,0,0,8006,8481,100,1,57
45.914617921991706,13.304751815911832,0,0,7990,8481,100,1,58
45.914617921991706,13.304751815911832,0,0,8006,8481,100,1,59
45.914617921991706,13.275115298985474,0,0,7990,8481,100,1,60
45.667622180742796,13.275115298985474,0,0,8006,8481,100,1,61
45.667622180742796,13.304751815911832,0,0,7990,8481,100,1,62
47.9706191715622,13.304751815911832,0,0,8006,8481,100,1,63
47.9706191715622,13.275115298985474,0,0,7990,8481,100,1,64
46.66446500535477,13.275115298985474,0,0,8006,8481,100,1,65
46.36167124262177,13.390791215451879,0,0,7990,8481,100,1,66
46.115271854876724,13.390791215451879,0,0,7940,8481,100,1,67
46.115271854876724,13.390791215451879,0,0,6829,8481,100,1,68
46.115271854876724,13.36134554205422,0,0,5226,8481,100,1,69
46.115271854876724,13.36134554205422,0,0,3657,8481,100,1,70
45.91967429966653,13.390791215451879,0,0,2141,8481,100,1,71
45.91967429966653,13.420790138643442,0,0,744,8481,100,1,72
45.93619393836014,13.420790138643442,0,0,3,8481,100,1,73
45.93619393836014,13.304751815911832,0,0,0,8481,100,1,74
45.77389948465654,13.304751815911832,0,0,0,8481,100,1,75
45.77389948465654,13.304751815911832,0,0,0,8481,100,1,76
45.77389948465654,13.304751815911832,0,0,0,8481,100,1,77
45.914617921991706,13.304751815911832,0,0,0,8481,100,1,78
45.914617921991706,13.304751815911832,0,0,0,8481,100,1,79
45.914617921991706,13.275115298985474,0,0,0,8481,100,1,80
45.667622180742796,13.275115298985474,0,0,0,8481,100,1,81
45.667622180742796,13.275115298985474,0,0,0,8481,100,1,82
47.72983334643809,13.275115298985474,0,0,0,8481,100,1,83
47.72983334643809,13.24603847977734,0,0,0,8481,100,1,84
46.55701478685018,13.24603847977734,0,0,0,8481,100,1,85
46.36167124262177,13.36134554205422,0,0,0,8481,100,1,86
46.115271854876724,13.390791215451879,0,0,0,8481,100,1,87
46.115271854876724,13.36134554205422,0,0,0,8481,100,1,88
46.115271854876724,13.36134554205422,0,0,0,8481,100,1,89
46.115271854876724,13.36134554205422,0,0,21,8481,100,1,90
46.025729912212064,13.390791215451879,0,0,552,8481,100,1,91
45.93619393836014,13.420790138643442,0,0,1472,8481,100,1,92
45.91967429966653,13.420790138643442,0,0,2558,8481,100,1,93
45.863390701785534,13.420790138643442,0,0,3759,8481,100,1,94
45.75714003724692,13.304751815911832,0,0,5010,8481,100,1,95
45.75714003724692,13.21877968188554,0,0,6318,8481,100,1,96
45.68441446802495,13.304751815911832,0,0,7585,8481,100,1,97
45.89736787240814,13.304751815911832,0,0,7990,8481,100,1,98
45.89736787240814,13.304751815911832,0,0,8006,8481,100,1,99
45.89736787240814,13.24603847977734,0,0,7990,8481,100,1,100
45.667622180742796,13.24603847977734,0,0,8006,8481,100,1,101
45.667622180742796,13.24603847977734,0,0,7990,8481,100,1,102
47.46957617837792,13.24603847977734,0,0,8006,8481,100,1,103
47.46957617837792,13.24603847977734,0,0,7990,8481,100,1,104
46.53893382134424,13.24603847977734,0,0,8006,8481,100,1,105
46.45110113194669,13.36134554205422,0,0,7990,8481,100,1,106
46.115271854876724,13.390791215451879,0,0,8006,8481,100,1,107
46.131054648980516,13.36134554205422,0,0,7990,8481,100,1,108
46.131054648980516,13.390791215451879,0,0,8006,8481,100,1,109
46.131054648980516,13.390791215451879,0,0,7990,8481,100,1,110
46.009242421460414,13.390791215451879,0,0,8006,8481,100,1,111
45.93619393836014,13.390791215451879,0,0,7990,8481,100,1,112
45.93619393836014,13.390791215451879,0,0,8006,8481,100,1,113
45.93619393836014,13.304751815911832,0,0,7990,8481,100,1,114
45.77389948465654,13.304751815911832,0,0,8006,8481,100,1,115
45.77389948465654,13.188949980820269,0,0,7990,8481,100,1,116
45.77389948465654,13.188949980820269,0,0,8006,8481,100,1,117
45.896525629912595,13.334699595100016,0,0,7990,8481,100,1,118
45.896525629912595,13.334699595100016,0,0,7990,8481,100,1,119
45.896525629912595,13.159682777444244,0,0,7445,8481,100,1,120
45.666784154209815,13.159682777444244,0,0,5927,8481,100,1,121
45.666784154209815,13.24579540752674,0,0,4421,8481,100,1,122
47.48922507025292,13.24579540752674,0,0,2952,8481,100,1,123
47.48922507025292,13.24579540752674,0,0,1583,8481,100,1,124
46.53807980575295,13.2748716931589,0,0,356,8481,100,1,125
46.450248728134625,13.361100353854225,0,0,0,8481,100,1,126
46.114425613720634,13.390545486907229,0,0,0,8481,100,1,127
46.114425613720634,13.361100353854225,0,0,0,8481,100,1,128
46.114425613720634,13.275115298985474,0,0,0,8481,100,1,129
46.114425613720634,13.275115298985474,0,0,0,8481,100,1,130
46.025729912212064,13.33494429882236,0,0,0,8481,100,1,131
45.93619393836014,13.390791215451879,0,0,0,8481,100,1,132
45.93619393836014,13.390791215451879,0,0,0,8481,100,1,133
45.93619393836014,13.390791215451879,0,0,0,8481,100,1,134
45.773059507875296,13.218537109849203,0,0,0,8481,100,1,135
45.773059507875296,13.218537109849203,0,0,0,8481,100,1,136
45.773059507875296,13.21877968188554,0,0,0,8481,100,1,137
45.907140308850906,13.302585016066459,0,0,0,8481,100,1,138
45.907140308850906,13.302585016066459,0,0,0,8481,100,1,139
45.907140308850906,13.186802040357003,0,0,0,8481,100,1,140
45.74968807081197,13.186802040357003,0,0,0,8481,100,1,141
45.74968807081197,13.186802040357003,0,0,306,8481,100,1,142
47.72895747717123,13.24579540752674,0,0,1112,8481,100,1,143
47.72895747717123,13.24579540752674,0,0,2113,8481,100,1,144
46.7711646522787,13.2748716931589,0,0,3217,8481,100,1,145
46.450248728134625,13.304507666238518,0,0,4396,8481,100,1,146
46.220568665959135,13.390545486907229,0,0,5589,8481,100,1,147
46.220568665959135,13.304507666238518,0,0,6822,8481,100,1,148
46.220568665959135,13.2748716931589,0,0,7858,8481,100,1,149
46.114425613720634,13.2748716931589,0,0,7990,8481,100,1,150
46.025729912212064,13.390791215451879,0,0,8006,8481,100,1,151
45.93535098338447,13.390791215451879,0,0,7990,8481,100,1,152
45.93535098338447,13.390545486907229,0,0,8006,8481,100,1,153
45.93535098338447,13.334699595100016,0,0,7990,8481,100,1,154
45.773059507875296,13.304507666238518,0,0,8006,8481,100,1,155
45.773059507875296,13.302585016066459,0,0,7990,8481,100,1,156
45.773059507875296,13.304507666238518,0,0,8006,8481,100,1,157
46.003171445222044,13.304507666238518,0,0,7990,8481,100,1,158
46.003171445222044,13.304507666238518,0,0,8006,8481,100,1,159
46.003171445222044,13.24579540752674,0,0,7990,8481,100,1,160
45.756300368010955,13.24579540752674,0,0,8006,8481,100,1,161
45.756300368010955,13.2748716931589,0,0,7990,8481,100,1,162
48.2343617392853,13.2748716931589,0,0,8006,8481,100,1,163
48.2343617392853,13.24603847977734,0,0,7990,8481,100,1,164
47.00624947905417,13.24603847977734,0,0,8006,8481,100,1,165
46.43319829306979,13.390545486907229,0,0,7990,8481,100,1,166
46.221416854935626,13.476896592193324,0,0,8006,8481,100,1,167
46.221416854935626,13.390545486907229,0,0,7990,8481,100,1,168
46.221416854935626,13.36134554205422,0,0,8006,8481,100,1,169
46.115271854876724,13.36134554205422,0,0,7990,8481,100,1,170
46.115271854876724,13.390791215451879,0,0,7467,8481,100,1,171
46.009242421460414,13.420790138643442,0,0,5996,8481,100,1,172
45.93535098338447,13.420790138643442,0,0,4484,8481,100,1,173
45.93535098338447,13.390545486907229,0,0,3046,8481,100,1,174
45.86254908279016,13.304507666238518,0,0,1690,8481,100,1,175
45.86254908279016,13.304507666238518,0,0,468,8481,100,1,176
45.86254908279016,13.304507666238518,0,0,0,8481,100,1,177
46.003171445222044,13.304507666238518,0,0,0,8481,100,1,178
46.003171445222044,13.304507666238518,0,0,0,8481,100,1,179
46.003171445222044,13.2748716931589,0,0,0,8481,100,1,180
45.756300368010955,13.2748716931589,0,0,0,8481,100,1,181
45.756300368010955,13.2748716931589,0,0,0,8481,100,1,182
48.3218414724979,13.24579540752674,0,0,0,8481,100,1,183
48.3218414724979,13.24579540752674,0,0,0,8481,100,1,184
47.024345811732,13.2748716931589,0,0,0,8481,100,1,185
46.450248728134625,13.361100353854225,0,0,0,8481,100,1,186
46.21388927679813,13.388610403307727,0,0,0,8481,100,1,187
46.21388927679813,13.361100353854225,0,0,0,8481,100,1,188
46.21388927679813,13.388610403307727,0,0,0,8481,100,1,189
46.114425613720634,13.388610403307727,0,0,0,8481,100,1,190
46.114425613720634,13.418604440901793,0,0,0,8481,100,1,191
46.02488531420095,13.418604440901793,0,0,2,8481,100,1,192
46.01823420347305,13.418604440901793,0,0,394,8481,100,1,193
46.01823420347305,13.390545486907229,0,0,1194,8481,100,1,194
45.84582265624081,13.2748716931589,0,0,2161,8481,100,1,195
45.84582265624081,13.2748716931589,0,0,3241,8481,100,1,196
45.773059507875296,13.302585016066459,0,0,4372,8481,100,1,197
45.91377536294806,13.304507666238518,0,0,5556,8481,100,1,198
45.91377536294806,13.304507666238518,0,0,6736,8481,100,1,199
45.91377536294806,13.272953325716438,0,0,7828,8481,100,1,200
45.87282004460166,13.243881241932774,0,0,7990,8481,100,1,201
45.87282004460166,13.243881241932774,0,0,7990,8481,100,1,202
48.33689977925667,13.243881241932774,0,0,8006,8481,100,1,203
48.33689977925667,13.243881241932774,0,0,7990,8481,100,1,204
47.113394557753146,13.24579540752674,0,0,8006,8481,100,1,205
46.42648817654938,13.388610403307727,0,0,7990,8481,100,1,206
46.220568665959135,13.476649283566614,0,0,8006,8481,100,1,207
46.220568665959135,13.388610403307727,0,0,7990,8481,100,1,208
46.220568665959135,13.359169525405802,0,0,8006,8481,100,1,209
46.10776156341792,13.359169525405802,0,0,7990,8481,100,1,210
46.10776156341792,13.388610403307727,0,0,8006,8481,100,1,211
45.92871281136883,13.388610403307727,0,0,7990,8481,100,1,212
45.92871281136883,13.418604440901793,0,0,8006,8481,100,1,213
45.92871281136883,13.388610403307727,0,0,7990,8481,100,1,214
45.85592143146347,13.302585016066459,0,0,8006,8481,100,1,215
45.85592143146347,13.302585016066459,0,0,7990,8481,100,1,216
45.85592143146347,13.302585016066459,0,0,8006,8481,100,1,217
45.99652347239108,13.302585016066459,0,0,7990,8481,100,1,218
45.99652347239108,13.302585016066459,0,0,8006,8481,100,1,219
45.99652347239108,13.243881241932774,0,0,7990,8481,100,1,220
45.979309760551715,13.243881241932774,0,0,8006,8481,100,1,221
45.979309760551715,13.243881241932774,0,0,7990,8481,100,1,222
48.44649409902495,13.243881241932774,0,0,7584,8481,100,1,223
48.44649409902495,13.272709557245864,0,0,6139,8481,100,1,224
47.342233542483186,13.272953325716438,0,0,4609,8481,100,1,225
46.34288575700732,13.360854895556677,0,0,3149,8481,100,1,226
46.21388927679813,13.474701757005404,0,0,1768,8481,100,1,227
46.21388927679813,13.360854895556677,0,0,516,8481,100,1,228
46.21388927679813,13.359169525405802,0,0,0,8481,100,1,229
46.114425613720634,13.359169525405802,0,0,0,8481,100,1,230
46.114425613720634,13.390545486907229,0,0,0,8481,100,1,231
45.91219586304864,13.418604440901793,0,0,0,8481,100,1,232
45.91219586304864,13.418604440901793,0,0,0,8481,100,1,233
45.91219586304864,13.418604440901793,0,0,0,8481,100,1,234
45.773059507875296,13.304507666238518,0,0,0,8481,100,1,235
45.773059507875296,13.302585016066459,0,0,0,8481,100,1,236
45.773059507875296,13.304507666238518,0,0,0,8481,100,1,237
45.90629718727074,13.302585016066459,0,0,0,8481,100,1,238
45.90629718727074,13.302340703386044,0,0,0,8481,100,1,239
45.90629718727074,13.157539603411246,0,0,0,8481,100,1,240
45.87282004460166,13.157539603411246,0,0,0,8481,100,1,241
45.87282004460166,13.243881241932774,0,0,0,8481,100,1,242
48.34388601152394,13.243881241932774,0,0,0,8481,100,1,243
48.34388601152394,13.24579540752674,0,0,0,8481,100,1,244
47.272846286404,13.330285472273385,0,0,307,8481,100,1,245
46.3437371430848,13.361100353854225,0,0,1086,8481,100,1,246
46.21388927679813,13.474701757005404,0,0,2029,8481,100,1,247
46.21388927679813,13.361100353854225,0,0,3080,8481,100,1,248
46.21388927679813,13.361100353854225,0,0,4175,8481,100,1,249
46.124388195596204,13.361100353854225,0,0,5321,8481,100,1,250
46.124388195596204,13.388610403307727,0,0,6461,8481,100,1,251
45.92871281136883,13.418604440901793,0,0,7616,8481,100,1,252
45.92871281136883,13.388610403307727,0,0,7990,8481,100,1,253
45.92871281136883,13.388610403307727,0,0,7990,8481,100,1,254
45.766444788793144,13.302585016066459,0,0,8006,8481,100,1,255
45.766444788793144,13.302585016066459,0,0,7990,8481,100,1,0
45.766444788793144,13.304507666238518,0,0,8006,8481,100,1,1
45.90629718727074,13.304507666238518,0,0,7990,8481,100,1,2
45.90629718727074,13.302340703386044,0,0,8006,8481,100,1,3
45.90629718727074,13.2748716931589,0,0,7990,8481,100,1,4
45.896525629912595,13.2748716931589,0,0,8006,8481,100,1,5
45.896525629912595,13.2748716931589,0,0,7990,8481,100,1,6
48.366091938222745,13.2748716931589,0,0,8006,8481,100,1,7
48.366091938222745,13.24579540752674,0,0,7990,8481,100,1,8
47.272846286404,13.24579540752674,0,0,8006,8481,100,1,9
46.3437371430848,13.390545486907229,0,0,7990,8481,100,1,10
46.220568665959135,13.476649283566614,0,0,8006,8481,100,1,11
46.220568665959135,13.390545486907229,0,0,7990,8481,100,1,12
46.220568665959135,13.361100353854225,0,0,8006,8481,100,1,13
46.131054648980516,13.361100353854225,0,0,7990,8481,100,1,14
46.131054648980516,13.476649283566614,0,0,8006,8481,100,1,15
45.91883164783551,13.476649283566614,0,0,7990,8481,100,1,16
45.91219586304864,13.418604440901793,0,0,7990,8481,100,1,17
45.82264820759752,13.388610403307727,0,0,7968,8481,100,1,18
45.773059507875296,13.2748716931589,0,0,6902,8481,100,1,19
45.773059507875296,13.2748716931589,0,0,5381,8481,100,1,20
45.773059507875296,13.302340703386044,0,0,3853,8481,100,1,21
45.91377536294806,13.365443712107526,0,0,2409,8481,100,1,22
45.91377536294806,13.365443712107526,0,0,1055,8481,100,1,23
45.91377536294806,13.243881241932774,0,0,75,8481,100,1,24
45.91377536294806,13.243881241932774,0,0,0,8481,100,1,25
46.02056137727916,13.243881241932774,0,0,0,8481,100,1,26
48.35910249695068,13.243881241932774,0,0,0,8481,100,1,27
48.35910249695068,13.243881241932774,0,0,0,8481,100,1,28
47.516978430836986,13.33221212604977,0,0,0,8481,100,1,29
46.3437371430848,13.361100353854225,0,0,0,8481,100,1,30
46.2373388553871,13.476649283566614,0,0,0,8481,100,1,31
46.2373388553871,13.361100353854225,0,0,0,8481,100,1,32
46.2373388553871,13.388610403307727,0,0,0,8481,100,1,33
46.131054648980516,13.388610403307727,0,0,0,8481,100,1,34
46.131054648980516,13.388610403307727,0,0,0,8481,100,1,35
45.90248700361662,13.361100353854225,0,0,0,8481,100,1,36
45.846663968291224,13.361100353854225,0,0,0,8481,100,1,37
45.829271049876226,13.390791215451879,0,0,0,8481,100,1,38
45.77389948465654,13.390791215451879,0,0,0,8481,100,1,39
45.77389948465654,13.304751815911832,0,0,0,8481,100,1,40
45.77389948465654,13.304751815911832,0,0,11,8481,100,1,41
45.91377536294806,13.334699595100016,0,0,479,8481,100,1,42
45.91377536294806,13.334699595100016,0,0,1337,8481,100,1,43
45.91377536294806,13.2748716931589,0,0,2369,8481,100,1,44
45.91377536294806,13.24579540752674,0,0,3488,8481,100,1,45
46.25231030183472,13.24579540752674,0,0,4677,8481,100,1,46
48.47671242838669,13.24579540752674,0,0,5877,8481,100,1,47
48.47671242838669,13.33221212604977,0,0,7119,8481,100,1,48
47.79666160748983,13.361100353854225,0,0,7961,8481,100,1,49
46.2373388553871,13.361100353854225,0,0,7990,8481,100,1,50
46.2373388553871,13.476896592193324,0,0,8006,8481,100,1,51
46.2373388553871,13.361100353854225,0,0,7990,8481,100,1,52
46.238187352111645,13.390545486907229,0,0,8006,8481,100,1,53
46.04154668915027,13.390545486907229,0,0,7990,8481,100,1,54
46.04154668915027,13.390545486907229,0,0,8006,8481,100,1,55
45.829271049876226,13.275115298985474,0,0,7990,8481,100,1,56
45.81373516096551,13.275115298985474,0,0,8006,8481,100,1,57
45.72330769441458,13.388610403307727,0,0,7990,8481,100,1,58
45.72330769441458,13.388610403307727,0,0,8006,8481,100,1,59
45.773059507875296,13.361100353854225,0,0,7990,8481,100,1,60
45.773059507875296,13.361100353854225,0,0,8006,8481,100,1,61
45.91377536294806,13.420543859601688,0,0,7990,8481,100,1,62
45.8071024322362,13.420543859601688,0,0,8006,8481,100,1,63
45.8071024322362,13.2748716931589,0,0,7990,8481,100,1,64
45.8071024322362,13.24579540752674,0,0,8006,8481,100,1,65
46.75724602131966,13.24579540752674,0,0,7990,8481,100,1,66
48.76389945812713,13.24579540752674,0,0,8006,8481,100,1,67
48.76389945812713,13.33221212604977,0,0,7990,8481,100,1,68
48.412357253213024,13.447392689331586,0,0,8006,8481,100,1,69
46.131054648980516,13.476649283566614,0,0,7990,8481,100,1,70
46.131054648980516,13.476649283566614,0,0,7809,8481,100,1,71
46.131054648980516,13.476649283566614,0,0,6467,8481,100,1,72
46.2373388553871,13.476649283566614,0,0,4868,8481,100,1,73
46.131054648980516,13.390545486907229,0,0,3322,8481,100,1,74
46.131054648980516,13.390545486907229,0,0,1848,8481,100,1,75
45.812894453177215,13.102610423734138,0,0,509,8481,100,1,76
45.73971636666737,13.102610423734138,0,0,0,8481,100,1,77
45.73971636666737,13.390545486907229,0,0,0,8481,100,1,78
45.73971636666737,13.390545486907229,0,0,0,8481,100,1,79
45.78999359395827,13.420543859601688,0,0,0,8481,100,1,80
45.78999359395827,13.420543859601688,0,0,0,8481,100,1,81
45.93119914111411,13.420543859601688,0,0,0,8481,100,1,82
45.78999359395827,13.420543859601688,0,0,0,8481,100,1,83
45.78999359395827,13.2748716931589,0,0,0,8481,100,1,84
45.78999359395827,13.2748716931589,0,0,0,8481,100,1,85
47.250557629733514,13.24579540752674,0,0,0,8481,100,1,86
48.901435016476455,13.2748716931589,0,0,0,8481,100,1,87
48.901435016476455,13.33221212604977,0,0,0,8481,100,1,88
48.6756557223121,13.447392689331586,0,0,0,8481,100,1,89
46.04154668915027,13.476649283566614,0,0,0,8481,100,1,90
46.04154668915027,13.476649283566614,0,0,0,8481,100,1,91
46.04154668915027,13.476649283566614,0,0,0,8481,100,1,92
46.2373388553871,13.476649283566614,0,0,0,8481,100,1,93
46.14785736792634,13.476649283566614,0,0,66,8481,100,1,94
46.14785736792634,13.476649283566614,0,0,671,8481,100,1,95
45.806273977499906,13.474701757005404,0,0,1566,8481,100,1,96
45.72330769441458,13.474701757005404,0,0,2592,8481,100,1,97
45.65016763301892,13.390545486907229,0,0,3705,8481,100,1,98
45.65016763301892,13.390545486907229,0,0,4846,8481,100,1,99
45.78999359395827,13.390545486907229,0,0,6029,8481,100,1,100
45.78999359395827,13.390545486907229,0,0,7199,8481,100,1,101
45.91377536294806,13.420543859601688,0,0,7989,8481,100,1,102
45.68357613334405,13.420543859601688,0,0,7990,8481,100,1,103
45.68357613334405,13.361100353854225,0,0,7990,8481,100,1,104
45.68357613334405,13.361100353854225,0,0,8006,8481,100,1,105
47.64036314940178,13.361100353854225,0,0,7990,8481,100,1,106
48.901435016476455,13.361100353854225,0,0,8006,8481,100,1,107
48.901435016476455,13.361100353854225,0,0,7990,8481,100,1,108
48.874637477188244,13.447392689331586,0,0,8006,8481,100,1,109
46.16483358090997,13.474701757005404,0,0,7990,8481,100,1,110
46.16483358090997,13.50450458365926,0,0,8006,8481,100,1,111
46.01823420347305,13.474701757005404,0,0,7990,8481,100,1,112
46.24759796580436,13.474701757005404,0,0,8006,8481,100,1,113
46.14118848636121,13.474701757005404,0,0,7990,8481,100,1,114
46.14118848636121,13.50450458365926,0,0,8006,8481,100,1,115
45.72330769441458,13.50645641768475,0,0,7990,8481,100,1,116
45.72330769441458,13.50645641768475,0,0,8006,8481,100,1,117
45.643570673187256,13.50450458365926,0,0,7990,8481,100,1,118
45.643570673187256,13.388610403307727,0,0,8006,8481,100,1,119
45.69393913732333,13.388610403307727,0,0,7990,8481,100,1,120
45.69393913732333,13.388610403307727,0,0,8006,8481,100,1,121
45.81776369066503,13.418604440901793,0,0,7990,8481,100,1,122
45.594098995703206,13.418604440901793,0,0,7624,8481,100,1,123
45.594098995703206,13.361100353854225,0,0,6183,8481,100,1,124
45.594098995703206,13.361100353854225,0,0,4626,8481,100,1,125
47.764423704490454,13.361100353854225,0,0,3119,8481,100,1,126
48.901435016476455,13.361100353854225,0,0,1680,8481,100,1,127
48.901435016476455,13.361100353854225,0,0,392,8481,100,1,128
48.78642408377463,13.447392689331586,0,0,0,8481,100,1,129
46.181983096605386,13.56281779966739,0,0,0,8481,100,1,130
46.181983096605386,13.56281779966739,0,0,0,8481,100,1,131
45.93535098338447,13.560857820791787,0,0,0,8481,100,1,132
46.24759796580436,13.474701757005404,0,0,0,8481,100,1,133
46.14785736792634,13.474701757005404,0,0,0,8481,100,1,134
46.14785736792634,13.474701757005404,0,0,0,8481,100,1,135
45.71670016502596,13.445449390675483,0,0,0,8481,100,1,136
45.62713217749703,13.445449390675483,0,0,0,8481,100,1,137
45.554040864109325,13.50450458365926,0,0,0,8481,100,1,138
45.554040864109325,13.50450458365926,0,0,0,8481,100,1,139
45.70054337701346,13.418604440901793,0,0,0,8481,100,1,140
45.70054337701346,13.418604440901793,0,0,0,8481,100,1,141
45.81776369066503,13.50645641768475,0,0,0,8481,100,1,142
45.594098995703206,13.50645641768475,0,0,0,8481,100,1,143
45.594098995703206,13.390545486907229,0,0,0,8481,100,1,144
45.594098995703206,13.361100353854225,0,0,0,8481,100,1,145
47.750060212568,13.361100353854225,0,0,0,8481,100,1,146
48.8781152025539,13.361100353854225,0,0,66,8481,100,1,147
48.8781152025539,13.447392689331586,0,0,713,8481,100,1,148
48.874637477188244,13.56281779966739,0,0,1675,8481,100,1,149
46.181983096605386,13.56281779966739,0,0,2797,8481,100,1,150
46.181983096605386,13.56281779966739,0,0,3990,8481,100,1,151
45.91883164783551,13.56281779966739,0,0,5235,8481,100,1,152
46.2373388553871,13.56281779966739,0,0,6470,8481,100,1,153
46.14785736792634,13.56281779966739,0,0,7683,8481,100,1,154
46.14785736792634,13.303884431308267,0,0,7990,8481,100,1,155
45.72330769441458,13.189336633534133,0,0,7990,8481,100,1,156
45.63372676143886,13.189336633534133,0,0,8006,8481,100,1,157
45.62713217749703,13.301961871200625,0,0,7990,8481,100,1,158
45.62713217749703,13.390545486907229,0,0,8006,8481,100,1,159
45.68357613334405,13.50645641768475,0,0,7990,8481,100,1,160
45.68357613334405,13.50645641768475,0,0,8006,8481,100,1,161
45.8243858269744,13.50645641768475,0,0,7990,8481,100,1,162
45.594098995703206,13.50645641768475,0,0,8006,8481,100,1,163
45.594098995703206,13.50645641768475,0,0,7990,8481,100,1,164
45.594098995703206,13.447392689331586,0,0,8006,8481,100,1,165
47.53076181031265,13.447392689331586,0,0,7990,8481,100,1,166
48.81343991469351,13.447392689331586,0,0,8006,8481,100,1,167
48.81343991469351,13.447392689331586,0,0,7990,8481,100,1,168
48.78642408377463,13.678481266268076,0,0,8006,8481,100,1,169
46.075391241476076,13.678481266268076,0,0,7990,8481,100,1,170
46.075391241476076,13.56281779966739,0,0,8006,8481,100,1,171
45.93535098338447,13.56281779966739,0,0,7990,8481,100,1,172
46.14785736792634,13.56281779966739,0,0,8006,8481,100,1,173
46.04154668915027,13.560857820791787,0,0,7990,8481,100,1,174
46.04154668915027,13.276120857713577,0,0,7951,8481,100,1,175
45.72414675820533,13.249168081351966,0,0,6873,8481,100,1,176
45.72330769441458,13.189336633534133,0,0,5259,8481,100,1,177
45.72330769441458,13.189336633534133,0,0,3674,8481,100,1,178
45.68357613334405,13.447392689331586,0,0,2138,8481,100,1,179
45.68357613334405,13.50645641768475,0,0,713,8481,100,1,180
45.68357613334405,13.50645641768475,0,0,1,8481,100,1,181
45.8243858269744,13.50645641768475,0,0,0,8481,100,1,182
45.68357613334405,13.50645641768475,0,0,0,8481,100,1,183
45.68357613334405,13.50645641768475,0,0,0,8481,100,1,184
45.68357613334405,13.361100353854225,0,0,0,8481,100,1,185
47.37997412570534,13.361100353854225,0,0,0,8481,100,1,186
48.79007804245505,13.447392689331586,0,0,0,8481,100,1,187
48.79007804245505,13.447392689331586,0,0,0,8481,100,1,188
48.78642408377463,13.592435974376912,0,0,0,8481,100,1,189
46.16483358090997,13.592435974376912,0,0,0,8481,100,1,190
46.16483358090997,13.56281779966739,0,0,0,8481,100,1,191
46.02488531420095,13.56281779966739,0,0,0,8481,100,1,192
46.2373388553871,13.56281779966739,0,0,0,8481,100,1,193
46.131054648980516,13.56281779966739,0,0,0,8481,100,1,194
46.131054648980516,13.303884431308267,0,0,0,8481,100,1,195
45.812894453177215,13.189578669715484,0,0,0,8481,100,1,196
45.72414675820533,13.189578669715484,0,0,0,8481,100,1,197
45.62713217749703,13.330285472273385,0,0,0,8481,100,1,198
45.62713217749703,13.476896592193324,0,0,0,8481,100,1,199
45.68441446802495,13.50670427329916,0,0,32,8481,100,1,200
45.68441446802495,13.50670427329916,0,0,607,8481,100,1,201
45.91377536294806,13.50670427329916,0,0,1556,8481,100,1,202
45.70054337701346,13.50670427329916,0,0,2658,8481,100,1,203
45.70054337701346,13.476649283566614,0,0,3861,8481,100,1,204
45.70054337701346,13.476649283566614,0,0,5098,8481,100,1,205
47.75093646908903,13.476649283566614,0,0,6381,8481,100,1,206
48.96616341310395,13.476649283566614,0,0,7615,8481,100,1,207
48.98546369332033,13.447392689331586,0,0,7990,8481,100,1,208
48.98546369332033,13.447392689331586,0,0,8006,8481,100,1,209
46.41310466658987,13.56281779966739,0,0,7990,8481,100,1,210
46.32682648838251,13.592435974376912,0,0,8006,8481,100,1,211
46.02488531420095,13.56281779966739,0,0,7990,8481,100,1,212
46.2373388553871,13.592435974376912,0,0,8006,8481,100,1,213
46.2373388553871,13.592435974376912,0,0,7990,8481,100,1,214
46.2373388553871,13.592435974376912,0,0,8006,8481,100,1,215
45.812894453177215,13.447392689331586,0,0,7990,8481,100,1,216
45.812894453177215,13.447392689331586,0,0,8006,8481,100,1,217
45.73310646604208,13.590471715343776,0,0,7990,8481,100,1,218
45.73310646604208,13.590471715343776,0,0,8006,8481,100,1,219
45.78999359395827,13.476649283566614,0,0,7990,8481,100,1,220
45.78999359395827,13.476649283566614,0,0,8006,8481,100,1,221
45.91377536294806,13.536810454932567,0,0,7990,8481,100,1,222
45.68357613334405,13.536810454932567,0,0,8006,8481,100,1,223
45.68357613334405,13.361100353854225,0,0,7990,8481,100,1,224
45.68357613334405,13.361100353854225,0,0,8006,8481,100,1,225
48.05824361400576,13.447392689331586,0,0,7990,8481,100,1,226
48.98944131458675,13.447392689331586,0,0,8006,8481,100,1,227
48.98944131458675,13.447392689331586,0,0,7990,8481,100,1,228
48.98944131458675,13.447392689331586,0,0,7588,8481,100,1,229
46.52017038261611,13.56281779966739,0,0,6069,8481,100,1,230
46.32682648838251,13.592435974376912,0,0,4435,8481,100,1,231
46.00839812600402,13.56281779966739,0,0,2848,8481,100,1,232
46.2373388553871,13.592435974376912,0,0,1328,8481,100,1,233
46.2373388553871,13.592435974376912,0,0,134,8481,100,1,234
46.2373388553871,13.592435974376912,0,0,0,8481,100,1,235
45.812894453177215,13.301961871200625,0,0,0,8481,100,1,236
45.806273977499906,13.301961871200625,0,0,0,8481,100,1,237
45.73310646604208,13.474701757005404,0,0,0,8481,100,1,238
45.73310646604208,13.474701757005404,0,0,0,8481,100,1,239
45.766444788793144,13.50450458365926,0,0,0,8481,100,1,240
45.766444788793144,13.50450458365926,0,0,0,8481,100,1,241
45.90629718727074,13.534605655917623,0,0,0,8481,100,1,242
45.693099931354276,13.534605655917623,0,0,0,8481,100,1,243
45.693099931354276,13.445202454175844,0,0,0,8481,100,1,244
45.693099931354276,13.445202454175844,0,0,0,8481,100,1,245
47.81065089030322,13.447145645747707,0,0,0,8481,100,1,246
48.96526385013455,13.447145645747707,0,0,0,8481,100,1,247
48.97748521844567,13.447145645747707,0,0,0,8481,100,1,248
48.97748521844567,13.53154318146821,0,0,0,8481,100,1,249
46.39465209782976,13.562568635595655,0,0,0,8481,100,1,250
46.319281037277385,13.6762533927138,0,0,0,8481,100,1,251
46.024039785786755,13.562568635595655,0,0,0,8481,100,1,252
46.319281037277385,13.590471715343776,0,0,17,8481,100,1,253
46.23065704274615,13.560608764723442,0,0,565,8481,100,1,254
46.23065704274615,13.474701757005404,0,0,1530,8481,100,1,255
45.806273977499906,13.301961871200625,0,0,2669,8481,100,1,0
45.73310646604208,13.301961871200625,0,0,3883,8481,100,1,1
45.71670016502596,13.474701757005404,0,0,5160,8481,100,1,2
45.73310646604208,13.474701757005404,0,0,6441,8481,100,1,3
45.76560425119944,13.504256562563471,0,0,7694,8481,100,1,4
45.76560425119944,13.504256562563471,0,0,7990,8481,100,1,5
45.90629718727074,13.534605655917623,0,0,7990,8481,100,1,6
45.7825355791544,13.534605655917623,0,0,8006,8481,100,1,7
45.7825355791544,13.388364510701837,0,0,7990,8481,100,1,8
45.7825355791544,13.358924173505331,0,0,8006,8481,100,1,9
47.351868222235765,13.358924173505331,0,0,7990,8481,100,1,10
49.04623294066301,13.445202454175844,0,0,8006,8481,100,1,11
49.04623294066301,13.445202454175844,0,0,7990,8481,100,1,12
48.889316551791346,13.560608764723442,0,0,8006,8481,100,1,13
46.157314514292096,13.590222115392422,0,0,7990,8481,100,1,14
46.157314514292096,13.590471715343776,0,0,8006,8481,100,1,15
46.10691475726694,13.590222115392422,0,0,7990,8481,100,1,16
46.32013174377764,13.590222115392422,0,0,8006,8481,100,1,17
46.12354108408375,13.445202454175844,0,0,7990,8481,100,1,18
46.12354108408375,13.416504675722079,0,0,8006,8481,100,1,19
45.806273977499906,13.301961871200625,0,0,7990,8481,100,1,20
45.8054327084111,13.301961871200625,0,0,8006,8481,100,1,21
45.8054327084111,13.3300406508518,0,0,7990,8481,100,1,22
45.666784154209815,13.476649283566614,0,0,8006,8481,100,1,23
45.666784154209815,13.504256562563471,0,0,7990,8481,100,1,24
45.666784154209815,13.504256562563471,0,0,8006,8481,100,1,25
45.82354398195914,13.534605655917623,0,0,7990,8481,100,1,26
45.78337642771127,13.534605655917623,0,0,7607,8481,100,1,27
45.78337642771127,13.50450458365926,0,0,6152,8481,100,1,28
45.78337642771127,13.360854895556677,0,0,4599,8481,100,1,29
47.09505884247058,13.360854895556677,0,0,3109,8481,100,1,30
48.919184147410675,13.360854895556677,0,0,1696,8481,100,1,31
48.919184147410675,13.445449390675483,0,0,427,8481,100,1,32
48.866677053059966,13.560608764723442,0,0,0,8481,100,1,33
46.158162246092175,13.562568635595655,0,0,0,8481,100,1,34
46.158162246092175,13.592186266186312,0,0,0,8481,100,1,35
46.1135784403514,13.562568635595655,0,0,0,8481,100,1,36
46.236489423964684,13.592186266186312,0,0,0,8481,100,1,37
46.12354108408375,13.560608764723442,0,0,0,8481,100,1,38
46.12354108408375,13.445202454175844,0,0,0,8481,100,1,39
45.806273977499906,13.303884431308267,0,0,0,8481,100,1,40
45.72330769441458,13.303884431308267,0,0,0,8481,100,1,41
45.71670016502596,13.445449390675483,0,0,0,8481,100,1,42
45.67697434561041,13.445449390675483,0,0,0,8481,100,1,43
45.67697434561041,13.50450458365926,0,0,0,8481,100,1,44
45.67697434561041,13.50450458365926,0,0,0,8481,100,1,45
45.816922210558396,13.534605655917623,0,0,0,8481,100,1,46
45.7825355791544,13.534605655917623,0,0,0,8481,100,1,47
45.7825355791544,13.388364510701837,0,0,0,8481,100,1,48
45.7825355791544,13.388364510701837,0,0,126,8481,100,1,49
47.24286172653207,13.360854895556677,0,0,806,8481,100,1,50
49.030243821835235,13.445202454175844,0,0,1726,8481,100,1,51
49.030243821835235,13.447145645747707,0,0,2793,8481,100,1,52
48.96196178510926,13.562568635595655,0,0,3933,8481,100,1,53
46.271398590409625,13.56281779966739,0,0,5138,8481,100,1,54
46.23065704274615,13.590471715343776,0,0,6352,8481,100,1,55
46.02488531420095,13.56281779966739,0,0,7588,8481,100,1,56
46.23065704274615,13.590471715343776,0,0,7990,8481,100,1,57
46.12354108408375,13.533498851585797,0,0,7990,8481,100,1,58
46.12354108408375,13.445202454175844,0,0,8006,8481,100,1,59
45.8054327084111,13.301717569964767,0,0,7990,8481,100,1,60
45.73971636666737,13.301717569964767,0,0,8006,8481,100,1,61
45.73226654073351,13.33221212604977,0,0,7990,8481,100,1,62
45.65934620706163,13.474454283262514,0,0,8006,8481,100,1,63
45.65934620706163,13.506208289034387,0,0,7990,8481,100,1,64
45.65934620706163,13.506208289034387,0,0,8006,8481,100,1,65
45.79964163084164,13.506208289034387,0,0,7990,8481,100,1,66
45.693099931354276,13.506208289034387,0,0,8006,8481,100,1,67
45.693099931354276,13.504256562563471,0,0,7990,8481,100,1,68
45.693099931354276,13.445202454175844,0,0,8006,8481,100,1,69
47.13395485044915,13.445202454175844,0,0,7990,8481,100,1,70
49.000242681992056,13.445202454175844,0,0,8006,8481,100,1,71
49.000242681992056,13.445202454175844,0,0,7990,8481,100,1,72
48.97748521844567,13.560608764723442,0,0,8006,8481,100,1,73
46.26386216708658,13.560608764723442,0,0,7990,8481,100,1,74
46.229807979520785,13.560608764723442,0,0,8006,8481,100,1,75
46.017389041564094,13.560608764723442,0,0,7990,8481,100,1,76
46.229807979520785,13.358924173505331,0,0,7990,8481,100,1,77
46.14034106629789,13.3300406508518,0,0,7463,8481,100,1,78
46.14034106629789,12.958931384865059,0,0,5922,8481,100,1,79
45.8054327084111,12.819056681554128,0,0,4376,8481,100,1,80
45.73226654073351,12.731790511701213,0,0,2858,8481,100,1,81
45.71586054103231,12.731790511701213,0,0,1432,8481,100,1,82
45.67613545121341,12.899308508498944,0,0,218,8481,100,1,83
45.67613545121341,12.927230859081224,0,0,0,8481,100,1,84
45.67613545121341,12.899308508498944,0,0,0,8481,100,1,85
45.816922210558396,12.927230859081224,0,0,0,8481,100,1,86
45.693099931354276,12.899308508498944,0,0,0,8481,100,1,87
