BIOZ1,BIOZ2,BIOZ3,BIOZ4,ECG,PPG,EXC_FREQ_KHZ,MUX_CONFIG,PACKET_NUMBER
21.58613919057966,27.00220035737328,0,0,8006,8481,100,1,47
21.58613919057966,27.118058035728005,0,0,7990,8481,100,1,48
21.58613919057966,28.39451247717112,0,0,8006,8481,100,1,49
21.38300362782486,28.39451247717112,0,0,7990,8481,100,1,50
21.38300362782486,27.452350541079124,0,0,8006,8481,100,1,51
21.42252402194332,27.17760126676962,0,0,7990,8481,100,1,52
21.42252402194332,27.17760126676962,0,0,8006,8481,100,1,53
21.42252402194332,28.103562251672063,0,0,7990,8481,100,1,54
21.49747404193293,28.103562251672063,0,0,7990,8481,100,1,55
21.511124242323405,27.212053000200992,0,0,7912,8481,100,1,56
21.58613919057966,27.212053000200992,0,0,6685,8481,100,1,57
21.58613919057966,27.289520887995675,0,0,5133,8481,100,1,58
21.58613919057966,27.289520887995675,0,0,3586,8481,100,1,59
21.58613919057966,27.15232872165589,0,0,2130,8481,100,1,60
21.675317162711632,27.151696755058413,0,0,776,8481,100,1,61
21.75037232341646,27.014657955057807,0,0,9,8481,100,1,62
21.75037232341646,27.014657955057807,0,0,0,8481,100,1,63
21.75037232341646,27.065813113258056,0,0,0,8481,100,1,64
21.471771047670533,27.065813113258056,0,0,0,8481,100,1,65
21.471771047670533,27.00665198736108,0,0,0,8481,100,1,66
21.58613919057966,27.00665198736108,0,0,0,8481,100,1,67
21.58613919057966,27.118058035728005,0,0,0,8481,100,1,68
21.58613919057966,28.39451247717112,0,0,0,8481,100,1,69
21.38250594145014,28.39451247717112,0,0,0,8481,100,1,70
21.38250594145014,27.560950151962338,0,0,0,8481,100,1,71
21.405786633733243,27.0879645481652,0,0,0,8481,100,1,72
21.405786633733243,27.0879645481652,0,0,0,8481,100,1,73
21.405786633733243,28.104216373319538,0,0,0,8481,100,1,74
21.49797440423615,28.104216373319538,0,0,0,8481,100,1,75
21.58613919057966,27.212053000200992,0,0,0,8481,100,1,76
21.58613919057966,27.212053000200992,0,0,0,8481,100,1,77
21.58613919057966,27.263427739114533,0,0,184,8481,100,1,78
21.58613919057966,27.263427739114533,0,0,950,8481,100,1,79
21.58613919057966,27.15232872165589,0,0,1952,8481,100,1,80
21.75037232341646,27.066443080879434,0,0,3080,8481,100,1,81
21.75087857202829,27.04009892397784,0,0,4307,8481,100,1,82
21.75087857202829,26.97995416153515,0,0,5576,8481,100,1,83
21.75087857202829,26.97995416153515,0,0,6903,8481,100,1,84
21.45921954956052,27.00665198736108,0,0,7919,8481,100,1,85
21.45921954956052,27.00665198736108,0,0,7990,8481,100,1,86
21.572909248489175,27.00665198736108,0,0,8006,8481,100,1,87
21.572909248489175,27.03236502242892,0,0,7990,8481,100,1,88
21.572909248489175,28.39451247717112,0,0,8006,8481,100,1,89
21.38250594145014,28.39451247717112,0,0,7990,8481,100,1,90
21.38250594145014,27.53307756168904,0,0,8006,8481,100,1,91
21.379478969521287,27.0879645481652,0,0,7990,8481,100,1,92
21.330912711998405,27.0879645481652,0,0,8006,8481,100,1,93
21.330912711998405,28.12832421419512,0,0,7990,8481,100,1,94
21.481148133443675,28.12832421419512,0,0,8006,8481,100,1,95
21.494430794773574,27.126063979415544,0,0,7990,8481,100,1,96
21.58613919057966,27.126063979415544,0,0,8006,8481,100,1,97
21.58613919057966,27.290156062504952,0,0,7990,8481,100,1,98
21.58613919057966,27.290156062504952,0,0,8006,8481,100,1,99
21.586641616599668,27.151696755058413,0,0,7990,8481,100,1,100
21.674812672780877,27.151696755058413,0,0,8006,8481,100,1,101
21.747293275214847,27.036271046150034,0,0,7990,8481,100,1,102
21.75037232341646,26.97995416153515,0,0,8006,8481,100,1,103
21.75037232341646,26.97995416153515,0,0,7990,8481,100,1,104
21.458720089271043,27.00602341136892,0,0,8006,8481,100,1,105
21.458720089271043,27.00602341136892,0,0,7990,8481,100,1,106
21.572909248489175,27.00602341136892,0,0,7990,8481,100,1,107
21.572909248489175,27.03236502242892,0,0,7782,8481,100,1,108
21.49747404193293,28.39451247717112,0,0,6390,8481,100,1,109
21.38250594145014,28.39451247717112,0,0,4848,8481,100,1,110
21.38250594145014,27.39270220830948,0,0,3333,8481,100,1,111
21.405786633733243,27.061981595252178,0,0,1924,8481,100,1,112
21.405786633733243,27.061981595252178,0,0,637,8481,100,1,113
21.41949138493449,28.161307400289086,0,0,1,8481,100,1,114
21.49747404193293,28.161307400289086,0,0,0,8481,100,1,115
21.49747404193293,27.126063979415544,0,0,0,8481,100,1,116
21.49747404193293,27.126063979415544,0,0,0,8481,100,1,117
21.49747404193293,27.289520887995675,0,0,0,8481,100,1,118
21.58613919057966,27.289520887995675,0,0,0,8481,100,1,119
21.58613919057966,27.151696755058413,0,0,0,8481,100,1,120
21.674812672780877,27.065813113258056,0,0,0,8481,100,1,121
21.75037232341646,27.04009892397784,0,0,0,8481,100,1,122
21.75037232341646,26.97613479798102,0,0,0,8481,100,1,123
21.75037232341646,26.97613479798102,0,0,0,8481,100,1,124
21.45921954956052,27.00602341136892,0,0,0,8481,100,1,125
21.45921954956052,27.00602341136892,0,0,0,8481,100,1,126
21.484189500003268,27.00602341136892,0,0,0,8481,100,1,127
21.49747404193293,27.03236502242892,0,0,1,8481,100,1,128
21.49747404193293,28.424943240477695,0,0,403,8481,100,1,129
21.38250594145014,28.424943240477695,0,0,1232,8481,100,1,130
21.38250594145014,27.59299214605202,0,0,2240,8481,100,1,131
21.38250594145014,27.091799744916905,0,0,3369,8481,100,1,132
21.320169161178672,27.091799744916905,0,0,4556,8481,100,1,133
21.320169161178672,28.132306708245764,0,0,5810,8481,100,1,134
21.49747404193293,28.132306708245764,0,0,7068,8481,100,1,135
21.49747404193293,27.212053000200992,0,0,7975,8481,100,1,136
21.49747404193293,27.212053000200992,0,0,7990,8481,100,1,137
21.49747404193293,27.25956824618716,0,0,7990,8481,100,1,138
21.583083391714876,27.25956824618716,0,0,8006,8481,100,1,139
21.65857040193966,27.147853079105587,0,0,7990,8481,100,1,140
21.671744321030936,27.061981595252178,0,0,8006,8481,100,1,141
21.747293275214847,27.036271046150034,0,0,7990,8481,100,1,142
21.747293275214847,26.97613479798102,0,0,8006,8481,100,1,143
21.747293275214847,26.97613479798102,0,0,7990,8481,100,1,144
21.455682328237923,27.00220035737328,0,0,8006,8481,100,1,145
21.455682328237923,27.00220035737328,0,0,7990,8481,100,1,146
21.49747404193293,27.00220035737328,0,0,8006,8481,100,1,147
21.58613919057966,27.00602341136892,0,0,7990,8481,100,1,148
21.58613919057966,28.424943240477695,0,0,8006,8481,100,1,149
21.38250594145014,28.424943240477695,0,0,7990,8481,100,1,150
21.38250594145014,27.759908890806766,0,0,8006,8481,100,1,151
21.408817330381538,27.2037767382757,0,0,7990,8481,100,1,152
21.408817330381538,27.2037767382757,0,0,8006,8481,100,1,153
21.41949138493449,28.103562251672063,0,0,7990,8481,100,1,154
21.49747404193293,28.103562251672063,0,0,8006,8481,100,1,155
21.49747404193293,27.212053000200992,0,0,7990,8481,100,1,156
21.49747404193293,27.212053000200992,0,0,8006,8481,100,1,157
21.49747404193293,27.263427739114533,0,0,7990,8481,100,1,158
21.572909248489175,27.263427739114533,0,0,7733,8481,100,1,159
21.674812672780877,27.151696755058413,0,0,6354,8481,100,1,160
21.75037232341646,27.151696755058413,0,0,4808,8481,100,1,161
21.763494386673525,27.04009892397784,0,0,3319,8481,100,1,162
21.75037232341646,27.04009892397784,0,0,1904,8481,100,1,163
21.75037232341646,27.065813113258056,0,0,620,8481,100,1,164
21.471271295246716,27.091799744916905,0,0,0,8481,100,1,165
21.471271295246716,27.091799744916905,0,0,0,8481,100,1,166
21.58613919057966,27.091799744916905,0,0,0,8481,100,1,167
21.58613919057966,27.091799744916905,0,0,0,8481,100,1,168
21.58613919057966,28.455624082175657,0,0,0,8481,100,1,169
21.38250594145014,28.455624082175657,0,0,0,8481,100,1,170
21.38250594145014,27.90699779587384,0,0,0,8481,100,1,171
21.41949138493449,27.19992568972362,0,0,0,8481,100,1,172
21.41949138493449,27.19992568972362,0,0,0,8481,100,1,173
21.41949138493449,28.103562251672063,0,0,0,8481,100,1,174
21.49747404193293,28.103562251672063,0,0,0,8481,100,1,175
21.511124242323405,27.212053000200992,0,0,0,8481,100,1,176
21.58613919057966,27.212053000200992,0,0,0,8481,100,1,177
21.58613919057966,27.263427739114533,0,0,0,8481,100,1,178
21.58613919057966,27.263427739114533,0,0,0,8481,100,1,179
21.58613919057966,27.151696755058413,0,0,80,8481,100,1,180
21.75037232341646,27.065813113258056,0,0,719,8481,100,1,181
21.763494386673525,27.04009892397784,0,0,1649,8481,100,1,182
21.75037232341646,27.04009892397784,0,0,2718,8481,100,1,183
21.747293275214847,27.061981595252178,0,0,3892,8481,100,1,184
21.471271295246716,27.091799744916905,0,0,5116,8481,100,1,185
21.471271295246716,27.091799744916905,0,0,6403,8481,100,1,186
21.58613919057966,26.97995416153515,0,0,7641,8481,100,1,187
21.58613919057966,26.97995416153515,0,0,7990,8481,100,1,188
21.49747404193293,28.455624082175657,0,0,8006,8481,100,1,189
21.38250594145014,28.455624082175657,0,0,7990,8481,100,1,190
21.38250594145014,27.90699779587384,0,0,8006,8481,100,1,191
21.41949138493449,27.2263675959059,0,0,7990,8481,100,1,192
21.41949138493449,27.2263675959059,0,0,8006,8481,100,1,193
21.41949138493449,28.018587118586463,0,0,7990,8481,100,1,194
21.49747404193293,28.018587118586463,0,0,8006,8481,100,1,195
21.511124242323405,27.126063979415544,0,0,7990,8481,100,1,196
21.58613919057966,27.126063979415544,0,0,8006,8481,100,1,197
21.58613919057966,27.26406230629534,0,0,7990,8481,100,1,198
21.586641616599668,27.26406230629534,0,0,8006,8481,100,1,199
21.586641616599668,27.15232872165589,0,0,7990,8481,100,1,200
21.6616368884859,27.04009892397784,0,0,8006,8481,100,1,201
21.674812672780877,27.014657955057807,0,0,7990,8481,100,1,202
21.75037232341646,27.014657955057807,0,0,8006,8481,100,1,203
21.75037232341646,27.065813113258056,0,0,7990,8481,100,1,204
21.471771047670533,27.065813113258056,0,0,8006,8481,100,1,205
21.471771047670533,26.92089908700447,0,0,7990,8481,100,1,206
21.58613919057966,26.92089908700447,0,0,8006,8481,100,1,207
21.58613919057966,26.97995416153515,0,0,7990,8481,100,1,208
21.484189500003268,28.424943240477695,0,0,8006,8481,100,1,209
21.38250594145014,28.424943240477695,0,0,7990,8481,100,1,210
21.38250594145014,27.936520256095573,0,0,7842,8481,100,1,211
21.41949138493449,27.253078855944192,0,0,6545,8481,100,1,212
21.41949138493449,27.253078855944192,0,0,4961,8481,100,1,213
21.42252402194332,28.103562251672063,0,0,3436,8481,100,1,214
21.49747404193293,28.103562251672063,0,0,1988,8481,100,1,215
21.511124242323405,27.126063979415544,0,0,668,8481,100,1,216
21.572909248489175,27.126063979415544,0,0,1,8481,100,1,217
21.58613919057966,27.263427739114533,0,0,0,8481,100,1,218
21.58613919057966,27.263427739114533,0,0,0,8481,100,1,219
21.58613919057966,27.151696755058413,0,0,0,8481,100,1,220
21.674812672780877,27.04009892397784,0,0,0,8481,100,1,221
21.75037232341646,27.014657955057807,0,0,0,8481,100,1,222
21.75037232341646,26.95415806318635,0,0,0,8481,100,1,223
21.75037232341646,26.95415806318635,0,0,0,8481,100,1,224
21.458720089271043,27.00602341136892,0,0,0,8481,100,1,225
21.458720089271043,27.00602341136892,0,0,0,8481,100,1,226
21.58613919057966,26.97995416153515,0,0,0,8481,100,1,227
21.58613919057966,26.97995416153515,0,0,0,8481,100,1,228
21.484189500003268,28.31012658804045,0,0,0,8481,100,1,229
21.38250594145014,28.31012658804045,0,0,0,8481,100,1,230
21.38250594145014,28.046888290075795,0,0,0,8481,100,1,231
21.41949138493449,27.280058678625306,0,0,0,8481,100,1,232
21.41949138493449,27.280058678625306,0,0,0,8481,100,1,233
21.41949138493449,27.98936118991747,0,0,370,8481,100,1,234
21.49747404193293,27.98936118991747,0,0,1191,8481,100,1,235
21.58613919057966,27.126063979415544,0,0,2197,8481,100,1,236
21.58613919057966,27.126063979415544,0,0,3300,8481,100,1,237
21.58613919057966,27.263427739114533,0,0,4478,8481,100,1,238
21.58613919057966,27.263427739114533,0,0,5674,8481,100,1,239
21.58613919057966,27.151696755058413,0,0,6914,8481,100,1,240
21.674812672780877,27.04009892397784,0,0,7900,8481,100,1,241
21.75037232341646,27.014657955057807,0,0,7990,8481,100,1,242
21.75037232341646,26.95415806318635,0,0,8006,8481,100,1,243
21.75037232341646,26.95415806318635,0,0,7990,8481,100,1,244
21.471271295246716,27.00602341136892,0,0,8006,8481,100,1,245
21.471271295246716,27.00602341136892,0,0,7990,8481,100,1,246
21.572909248489175,26.868241629208345,0,0,8006,8481,100,1,247
21.572909248489175,26.868241629208345,0,0,7990,8481,100,1,248
21.49747404193293,28.225773334296573,0,0,8006,8481,100,1,249
21.38200784963504,28.245839830726446,0,0,7990,8481,100,1,250
21.38200784963504,28.245839830726446,0,0,8006,8481,100,1,251
21.330912711998405,27.311172519745856,0,0,7990,8481,100,1,252
21.330912711998405,27.311172519745856,0,0,8006,8481,100,1,253
21.330912711998405,28.018587118586463,0,0,7990,8481,100,1,254
21.49747404193293,28.018587118586463,0,0,8006,8481,100,1,255
21.511124242323405,27.126063979415544,0,0,7990,8481,100,1,0
21.572909248489175,27.126063979415544,0,0,8006,8481,100,1,1
21.583083391714876,27.17760126676962,0,0,7990,8481,100,1,2
21.583083391714876,27.17760126676962,0,0,8006,8481,100,1,3
21.58613919057966,27.065813113258056,0,0,7990,8481,100,1,4
21.674812672780877,27.04009892397784,0,0,8006,8481,100,1,5
21.75037232341646,26.928635901313204,0,0,7990,8481,100,1,6
21.75037232341646,26.928635901313204,0,0,7977,8481,100,1,7
21.75037232341646,26.928635901313204,0,0,7055,8481,100,1,8
21.5475447056314,27.00602341136892,0,0,5510,8481,100,1,9
21.5475447056314,27.00602341136892,0,0,4002,8481,100,1,10
21.572909248489175,26.894120136357476,0,0,2547,8481,100,1,11
21.572909248489175,26.894120136357476,0,0,1213,8481,100,1,12
21.48368903953463,28.19475604527659,0,0,144,8481,100,1,13
21.38250594145014,28.245839830726446,0,0,0,8481,100,1,14
21.38250594145014,28.245839830726446,0,0,0,8481,100,1,15
21.31715101383215,27.334184256175813,0,0,0,8481,100,1,16
21.31715101383215,27.334184256175813,0,0,0,8481,100,1,17
21.31715101383215,28.01793444349999,0,0,0,8481,100,1,18
21.49747404193293,28.01793444349999,0,0,0,8481,100,1,19
21.510623154427154,27.126063979415544,0,0,0,8481,100,1,20
21.572909248489175,27.126063979415544,0,0,0,8481,100,1,21
21.572909248489175,27.17760126676962,0,0,0,8481,100,1,22
21.58613919057966,27.17760126676962,0,0,0,8481,100,1,23
21.58613919057966,27.065813113258056,0,0,0,8481,100,1,24
21.674812672780877,27.04009892397784,0,0,0,8481,100,1,25
21.75037232341646,26.928635901313204,0,0,0,8481,100,1,26
21.75037232341646,26.928635901313204,0,0,0,8481,100,1,27
21.75037232341646,26.928635901313204,0,0,0,8481,100,1,28
21.5475447056314,27.00602341136892,0,0,0,8481,100,1,29
21.5475447056314,27.00602341136892,0,0,173,8481,100,1,30
21.57240672135068,26.893493655010946,0,0,941,8481,100,1,31
21.57240672135068,26.893493655010946,0,0,1955,8481,100,1,32
21.484189500003268,28.111001446876205,0,0,3103,8481,100,1,33
21.470771135699408,28.24918090104654,0,0,4352,8481,100,1,34
21.40528814077066,28.24918090104654,0,0,5632,8481,100,1,35
21.330912711998405,27.361964324939592,0,0,6957,8481,100,1,36
21.330912711998405,27.361964324939592,0,0,7932,8481,100,1,37
21.330912711998405,27.933641389614717,0,0,7990,8481,100,1,38
21.49747404193293,27.933641389614717,0,0,8006,8481,100,1,39
21.49747404193293,27.126063979415544,0,0,7990,8481,100,1,40
21.572909248489175,27.126063979415544,0,0,8006,8481,100,1,41
21.572909248489175,27.17760126676962,0,0,7990,8481,100,1,42
21.572909248489175,27.17760126676962,0,0,8006,8481,100,1,43
21.572909248489175,27.04009892397784,0,0,7990,8481,100,1,44
21.6616368884859,27.04009892397784,0,0,8006,8481,100,1,45
21.674812672780877,26.928635901313204,0,0,7990,8481,100,1,46
21.73761230607621,26.928635901313204,0,0,8006,8481,100,1,47
21.73761230607621,26.928635901313204,0,0,7990,8481,100,1,48
21.471271295246716,26.946697943461064,0,0,8006,8481,100,1,49
21.471271295246716,26.946697943461064,0,0,7990,8481,100,1,50
21.572909248489175,26.894120136357476,0,0,8006,8481,100,1,51
21.572909248489175,26.894120136357476,0,0,7990,8481,100,1,52
21.484189500003268,28.165305152323054,0,0,8006,8481,100,1,53
21.38200784963504,28.24918090104654,0,0,7990,8481,100,1,54
21.38200784963504,28.24918090104654,0,0,8006,8481,100,1,55
21.33393280776819,27.36647561951287,0,0,7990,8481,100,1,56
21.33393280776819,27.36647561951287,0,0,8006,8481,100,1,57
21.33393280776819,28.018587118586463,0,0,7990,8481,100,1,58
21.49747404193293,28.018587118586463,0,0,7985,8481,100,1,59
21.511124242323405,27.126063979415544,0,0,7120,8481,100,1,60
21.49747404193293,27.126063979415544,0,0,5543,8481,100,1,61
21.560044202310554,27.17760126676962,0,0,4000,8481,100,1,62
21.572909248489175,27.17760126676962,0,0,2513,8481,100,1,63
21.572909248489175,27.04009892397784,0,0,1146,8481,100,1,64
21.65806602220769,26.95415806318635,0,0,105,8481,100,1,65
21.674812672780877,26.928008615943984,0,0,0,8481,100,1,66
21.734028915441773,26.924196783514606,0,0,0,8481,100,1,67
21.734028915441773,26.928008615943984,0,0,0,8481,100,1,68
21.471271295246716,27.00602341136892,0,0,0,8481,100,1,69
21.471271295246716,27.00602341136892,0,0,0,8481,100,1,70
21.58258076990678,26.88968670839579,0,0,0,8481,100,1,71
21.58258076990678,26.88968670839579,0,0,0,8481,100,1,72
21.48368903953463,28.080149131326944,0,0,0,8481,100,1,73
21.38200784963504,28.24918090104654,0,0,0,8481,100,1,74
21.38200784963504,28.24918090104654,0,0,0,8481,100,1,75
21.40528814077066,27.47514466864251,0,0,0,8481,100,1,76
21.40528814077066,27.47514466864251,0,0,0,8481,100,1,77
21.418992572818862,28.01793444349999,0,0,0,8481,100,1,78
21.49747404193293,28.01793444349999,0,0,0,8481,100,1,79
21.49747404193293,27.126063979415544,0,0,2,8481,100,1,80
21.484189500003268,27.126063979415544,0,0,415,8481,100,1,81
21.484189500003268,27.17760126676962,0,0,1253,8481,100,1,82
21.572909248489175,27.17760126676962,0,0,2268,8481,100,1,83
21.58613919057966,27.04009892397784,0,0,3410,8481,100,1,84
21.661132294493722,26.95415806318635,0,0,4618,8481,100,1,85
21.674812672780877,26.928008615943984,0,0,5900,8481,100,1,86
21.746786829325313,26.928008615943984,0,0,7196,8481,100,1,87
21.746786829325313,26.97550658405062,0,0,7990,8481,100,1,88
21.471271295246716,26.97550658405062,0,0,7999,8481,100,1,89
21.471271295246716,26.920272506898893,0,0,7990,8481,100,1,90
21.58613919057966,26.894120136357476,0,0,8006,8481,100,1,91
21.58613919057966,26.894120136357476,0,0,7990,8481,100,1,92
21.58613919057966,28.05085925417959,0,0,8006,8481,100,1,93
21.38200784963504,28.24918090104654,0,0,7990,8481,100,1,94
21.38200784963504,28.24918090104654,0,0,8006,8481,100,1,95
21.330415962682235,27.47514466864251,0,0,7990,8481,100,1,96
21.330415962682235,27.47514466864251,0,0,8006,8481,100,1,97
21.330415962682235,28.018587118586463,0,0,7990,8481,100,1,98
21.496973272009377,28.018587118586463,0,0,8006,8481,100,1,99
21.49747404193293,27.126063979415544,0,0,7990,8481,100,1,100
21.49747404193293,27.126063979415544,0,0,8006,8481,100,1,101
21.56985532249483,27.17760126676962,0,0,7990,8481,100,1,102
21.572909248489175,27.17760126676962,0,0,8006,8481,100,1,103
21.58613919057966,27.065813113258056,0,0,7990,8481,100,1,104
21.674307771867216,26.953530183294678,0,0,8006,8481,100,1,105
21.674307771867216,26.928008615943984,0,0,7990,8481,100,1,106
21.746786829325313,26.928008615943984,0,0,8006,8481,100,1,107
21.746786829325313,26.97932568073985,0,0,7990,8481,100,1,108
21.471271295246716,27.03173532075609,0,0,8006,8481,100,1,109
21.471271295246716,27.03173532075609,0,0,7990,8481,100,1,110
21.496973272009377,26.86761575068511,0,0,7746,8481,100,1,111
21.585636355258117,26.86761575068511,0,0,6339,8481,100,1,112
21.585636355258117,27.906347720189338,0,0,4746,8481,100,1,113
21.38200784963504,28.33374437023174,0,0,3220,8481,100,1,114
21.38200784963504,28.33374437023174,0,0,1778,8481,100,1,115
21.4220249979326,27.819328901424303,0,0,478,8481,100,1,116
21.4220249979326,27.819328901424303,0,0,0,8481,100,1,117
21.4220249979326,27.98936118991747,0,0,0,8481,100,1,118
21.496973272009377,27.98936118991747,0,0,0,8481,100,1,119
21.510623154427154,27.126063979415544,0,0,0,8481,100,1,120
21.496973272009377,27.126063979415544,0,0,0,8481,100,1,121
21.57240672135068,27.17696818191127,0,0,0,8481,100,1,122
21.57240672135068,27.17696818191127,0,0,0,8481,100,1,123
21.58258076990678,27.035641431780725,0,0,0,8481,100,1,124
21.65806602220769,26.953530183294678,0,0,0,8481,100,1,125
21.674307771867216,26.928008615943984,0,0,0,8481,100,1,126
21.746786829325313,26.924196783514606,0,0,0,8481,100,1,127
21.746786829325313,26.928008615943984,0,0,0,8481,100,1,128
21.467731810257035,26.942255848180324,0,0,0,8481,100,1,129
21.467731810257035,26.942255848180324,0,0,0,8481,100,1,130
21.58258076990678,26.86761575068511,0,0,0,8481,100,1,131
21.585636355258117,26.86761575068511,0,0,25,8481,100,1,132
21.585636355258117,27.821641373568145,0,0,572,8481,100,1,133
21.38200784963504,28.329733546885077,0,0,1506,8481,100,1,134
21.38200784963504,28.329733546885077,0,0,2608,8481,100,1,135
21.333435847433208,27.844134541603033,0,0,3821,8481,100,1,136
21.333435847433208,27.844134541603033,0,0,5081,8481,100,1,137
21.333435847433208,27.90433045981441,0,0,6399,8481,100,1,138
21.496973272009377,27.90433045981441,0,0,7656,8481,100,1,139
21.510623154427154,27.10007241731402,0,0,7990,8481,100,1,140
21.57240672135068,27.10007241731402,0,0,8006,8481,100,1,141
21.57240672135068,27.14722086623994,0,0,7990,8481,100,1,142
21.569353008738922,27.14722086623994,0,0,8006,8481,100,1,143
21.569353008738922,27.035641431780725,0,0,7990,8481,100,1,144
21.674307771867216,26.953530183294678,0,0,8006,8481,100,1,145
21.749865662389016,26.928008615943984,0,0,7990,8481,100,1,146
21.746786829325313,26.863812467253386,0,0,8006,8481,100,1,147
21.746786829325313,26.863812467253386,0,0,7990,8481,100,1,148
21.467731810257035,26.942255848180324,0,0,8006,8481,100,1,149
21.467731810257035,26.942255848180324,0,0,7990,8481,100,1,150
21.585636355258117,26.781725979394523,0,0,8006,8481,100,1,151
21.585636355258117,26.781725979394523,0,0,7990,8481,100,1,152
21.585636355258117,27.821641373568145,0,0,8006,8481,100,1,153
21.470771135699408,28.33374437023174,0,0,7990,8481,100,1,154
21.4220249979326,28.33374437023174,0,0,8006,8481,100,1,155
21.330415962682235,27.848076615562263,0,0,7990,8481,100,1,156
21.330415962682235,27.848076615562263,0,0,8006,8481,100,1,157
21.330415962682235,27.98936118991747,0,0,7990,8481,100,1,158
21.48368903953463,27.98936118991747,0,0,8006,8481,100,1,159
21.510623154427154,27.096236228149348,0,0,7990,8481,100,1,160
21.569353008738922,27.096236228149348,0,0,7990,8481,100,1,161
21.57240672135068,27.096236228149348,0,0,7816,8481,100,1,162
21.57240672135068,27.065182632433324,0,0,6471,8481,100,1,163
21.58258076990678,27.035641431780725,0,0,4955,8481,100,1,164
21.759906729443305,26.924196783514606,0,0,3460,8481,100,1,165
21.759906729443305,26.90276175828713,0,0,2064,8481,100,1,166
21.762987419976,26.86761575068511,0,0,778,8481,100,1,167
21.749865662389016,26.86761575068511,0,0,15,8481,100,1,168
21.467731810257035,26.942255848180324,0,0,0,8481,100,1,169
21.467731810257035,26.942255848180324,0,0,0,8481,100,1,170
21.585636355258117,26.781725979394523,0,0,0,8481,100,1,171
21.585636355258117,26.781725979394523,0,0,0,8481,100,1,172
21.585636355258117,27.821641373568145,0,0,0,8481,100,1,173
21.470771135699408,28.27919789148943,0,0,0,8481,100,1,174
21.40528814077066,28.27919789148943,0,0,0,8481,100,1,175
21.330415962682235,27.844134541603033,0,0,0,8481,100,1,176
21.330415962682235,27.844134541603033,0,0,0,8481,100,1,177
21.330415962682235,27.98936118991747,0,0,0,8481,100,1,178
21.48368903953463,27.98936118991747,0,0,0,8481,100,1,179
21.510623154427154,27.125432095085383,0,0,0,8481,100,1,180
21.55954197485509,27.125432095085383,0,0,0,8481,100,1,181
21.57240672135068,27.17696818191127,0,0,0,8481,100,1,182
21.57240672135068,27.17696818191127,0,0,244,8481,100,1,183
21.585636355258117,27.039469042148724,0,0,1013,8481,100,1,184
21.674307771867216,26.953530183294678,0,0,1979,8481,100,1,185
21.749865662389016,26.928008615943984,0,0,3081,8481,100,1,186
21.749865662389016,26.86761575068511,0,0,4254,8481,100,1,187
21.749865662389016,26.86761575068511,0,0,5497,8481,100,1,188
21.547042769343726,26.946070237348113,0,0,6748,8481,100,1,189
21.547042769343726,26.946070237348113,0,0,7863,8481,100,1,190
21.585636355258117,26.781725979394523,0,0,7990,8481,100,1,191
21.585636355258117,26.781725979394523,0,0,7990,8481,100,1,192
21.585636355258117,27.792287617437683,0,0,8006,8481,100,1,193
21.470771135699408,28.33374437023174,0,0,7990,8481,100,1,194
21.470771135699408,28.33374437023174,0,0,8006,8481,100,1,195
21.330415962682235,27.87313697749452,0,0,7990,8481,100,1,196
21.330415962682235,27.87313697749452,0,0,8006,8481,100,1,197
21.330415962682235,27.90433045981441,0,0,7990,8481,100,1,198
21.48064788548008,27.90433045981441,0,0,8006,8481,100,1,199
21.585636355258117,27.039469042148724,0,0,7990,8481,100,1,200
21.57240672135068,27.039469042148724,0,0,8006,8481,100,1,201
21.57240672135068,27.087333729969682,0,0,7990,8481,100,1,202
21.569353008738922,27.087333729969682,0,0,8006,8481,100,1,203
21.569353008738922,27.061351382141602,0,0,7990,8481,100,1,204
21.749865662389016,26.953530183294678,0,0,8006,8481,100,1,205
21.749865662389016,26.842012495434073,0,0,7990,8481,100,1,206
21.749865662389016,26.842012495434073,0,0,8006,8481,100,1,207
21.749865662389016,26.86761575068511,0,0,7990,8481,100,1,208
21.467731810257035,26.919645416349606,0,0,8006,8481,100,1,209
21.467731810257035,26.919645416349606,0,0,7990,8481,100,1,210
21.585636355258117,26.80768679466818,0,0,8006,8481,100,1,211
21.585636355258117,26.80768679466818,0,0,7990,8481,100,1,212
21.585636355258117,27.763192482593713,0,0,7857,8481,100,1,213
21.381509352467788,28.33374437023174,0,0,6608,8481,100,1,214
21.381509352467788,28.33374437023174,0,0,5061,8481,100,1,215
21.330415962682235,27.877083157515916,0,0,3572,8481,100,1,216
21.330415962682235,27.877083157515916,0,0,2156,8481,100,1,217
21.330415962682235,27.93233946741148,0,0,876,8481,100,1,218
21.496973272009377,27.93233946741148,0,0,37,8481,100,1,219
21.510121658740513,27.039469042148724,0,0,0,8481,100,1,220
21.55954197485509,27.039469042148724,0,0,0,8481,100,1,221
21.57240672135068,27.17696818191127,0,0,0,8481,100,1,222
21.569353008738922,27.17696818191127,0,0,0,8481,100,1,223
21.57240672135068,26.97550658405062,0,0,0,8481,100,1,224
21.661132294493722,26.928008615943984,0,0,0,8481,100,1,225
21.674307771867216,26.842012495434073,0,0,0,8481,100,1,226
21.749865662389016,26.842012495434073,0,0,0,8481,100,1,227
21.749865662389016,26.86761575068511,0,0,0,8481,100,1,228
21.470771135699408,26.919645416349606,0,0,0,8481,100,1,229
21.470771135699408,26.919645416349606,0,0,0,8481,100,1,230
21.57240672135068,26.781725979394523,0,0,0,8481,100,1,231
21.585636355258117,26.781725979394523,0,0,0,8481,100,1,232
21.585636355258117,27.763192482593713,0,0,111,8481,100,1,233
21.378482803699722,28.274535772184144,0,0,791,8481,100,1,234
21.378482803699722,28.274535772184144,0,0,1736,8481,100,1,235
21.316157752149607,27.901747069104914,0,0,2833,8481,100,1,236
21.316157752149607,27.901747069104914,0,0,4004,8481,100,1,237
21.316157752149607,27.928385649829632,0,0,5248,8481,100,1,238
21.493429272830863,27.928385649829632,0,0,6500,8481,100,1,239
21.50707690492384,27.035011305012414,0,0,7721,8481,100,1,240
21.493429272830863,27.035011305012414,0,0,7990,8481,100,1,241
21.568850286185057,27.146588138860558,0,0,7990,8481,100,1,242
21.568850286185057,27.146588138860558,0,0,8006,8481,100,1,243
21.568850286185057,27.060720656144753,0,0,7990,8481,100,1,244
21.660627289857853,26.953530183294678,0,0,8006,8481,100,1,245
21.674307771867216,26.927380820083595,0,0,7990,8481,100,1,246
21.733522354743467,26.863186345347707,0,0,8006,8481,100,1,247
21.733522354743467,26.863186345347707,0,0,7990,8481,100,1,248
21.46723145621504,26.94162789797424,0,0,8006,8481,100,1,249
21.46723145621504,26.94162789797424,0,0,7990,8481,100,1,250
21.582077739050025,26.77731073387743,0,0,8006,8481,100,1,251
21.582077739050025,26.77731073387743,0,0,7990,8481,100,1,252
21.582077739050025,27.648769761254393,0,0,8006,8481,100,1,253
21.378482803699722,28.274535772184144,0,0,7990,8481,100,1,254
21.378482803699722,28.274535772184144,0,0,8006,8481,100,1,255
21.32991880909662,28.045581459747723,0,0,7990,8481,100,1,0
21.32991880909662,28.045581459747723,0,0,8006,8481,100,1,1
21.32991880909662,27.928385649829632,0,0,7990,8481,100,1,2
21.496973272009377,27.928385649829632,0,0,8006,8481,100,1,3
21.50707690492384,27.03883864771541,0,0,7990,8481,100,1,4
21.569353008738922,27.03883864771541,0,0,8006,8481,100,1,5
21.57240672135068,27.17696818191127,0,0,7990,8481,100,1,6
21.57240672135068,27.17696818191127,0,0,7987,8481,100,1,7
21.57240672135068,27.065182632433324,0,0,7146,8481,100,1,8
21.660627289857853,26.953530183294678,0,0,5577,8481,100,1,9
21.674307771867216,26.927380820083595,0,0,4048,8481,100,1,10
21.73710594228521,26.863812467253386,0,0,2576,8481,100,1,11
21.73710594228521,26.863812467253386,0,0,1229,8481,100,1,12
21.46723145621504,26.919645416349606,0,0,152,8481,100,1,13
21.46723145621504,26.919645416349606,0,0,0,8481,100,1,14
21.582077739050025,26.781725979394523,0,0,0,8481,100,1,15
21.585636355258117,26.781725979394523,0,0,0,8481,100,1,16
21.585636355258117,27.620751043230445,0,0,0,8481,100,1,17
21.394480547630554,28.278538594189556,0,0,0,8481,100,1,18
21.394480547630554,28.278538594189556,0,0,0,8481,100,1,19
21.32991880909662,28.104541496018072,0,0,0,8481,100,1,20
21.32991880909662,28.104541496018072,0,0,0,8481,100,1,21
21.32991880909662,27.932990693284722,0,0,0,8481,100,1,22
21.483188171786214,27.932990693284722,0,0,0,8481,100,1,23
21.493429272830863,27.035011305012414,0,0,0,8481,100,1,24
21.493429272830863,27.035011305012414,0,0,0,8481,100,1,25
21.569353008738922,27.150431277480042,0,0,0,8481,100,1,26
21.569353008738922,27.150431277480042,0,0,0,8481,100,1,27
21.58513311072411,27.060720656144753,0,0,47,8481,100,1,28
21.657561231996407,26.953530183294678,0,0,607,8481,100,1,29
21.674307771867216,26.923569254215874,0,0,1485,8481,100,1,30
21.749358589035705,26.866989362815616,0,0,2517,8481,100,1,31
21.749358589035705,26.866989362815616,0,0,3657,8481,100,1,32
21.470270569117208,26.94544202040159,0,0,4841,8481,100,1,33
21.470270569117208,26.94544202040159,0,0,6085,8481,100,1,34
21.58513311072411,26.781101593947245,0,0,7335,8481,100,1,35
21.58513311072411,26.781101593947245,0,0,7990,8481,100,1,36
21.58513311072411,27.591706100719534,0,0,8005,8481,100,1,37
21.394480547630554,28.278538594189556,0,0,7990,8481,100,1,38
21.394480547630554,28.278538594189556,0,0,8006,8481,100,1,39
21.316157752149607,28.134139756552454,0,0,7990,8481,100,1,40
21.316157752149607,28.134139756552454,0,0,8006,8481,100,1,41
21.316157752149607,27.90433045981441,0,0,7990,8481,100,1,42
21.496472094554203,27.90433045981441,0,0,8006,8481,100,1,43
21.58513311072411,27.03883864771541,0,0,7990,8481,100,1,44
21.58513311072411,27.03883864771541,0,0,8006,8481,100,1,45
21.58513311072411,27.17696818191127,0,0,7990,8481,100,1,46
21.57240672135068,27.17696818191127,0,0,8006,8481,100,1,47
21.57240672135068,27.039469042148724,0,0,7990,8481,100,1,48
21.660627289857853,26.95290179242801,0,0,8006,8481,100,1,49
21.6738024600601,26.84138670447532,0,0,7990,8481,100,1,50
21.74627997127497,26.84138670447532,0,0,8006,8481,100,1,51
21.74627997127497,26.863186345347707,0,0,7990,8481,100,1,52
21.46723145621504,26.94162789797424,0,0,8006,8481,100,1,53
21.46723145621504,26.94162789797424,0,0,7990,8481,100,1,54
21.582077739050025,26.75541674844293,0,0,8006,8481,100,1,55
21.582077739050025,26.75541674844293,0,0,7990,8481,100,1,56
21.496472094554203,27.591706100719534,0,0,8006,8481,100,1,57
21.483188171786214,28.308807118735782,0,0,7990,8481,100,1,58
21.407819515086405,28.308807118735782,0,0,7771,8481,100,1,59
21.32991880909662,28.134139756552454,0,0,6437,8481,100,1,60
21.32991880909662,28.134139756552454,0,0,4915,8481,100,1,61
21.32991880909662,27.90367990212188,0,0,3462,8481,100,1,62
21.483188171786214,27.90367990212188,0,0,2091,8481,100,1,63
21.510121658740513,27.124799696521368,0,0,851,8481,100,1,64
21.58513311072411,27.124799696521368,0,0,36,8481,100,1,65
21.58513311072411,27.124799696521368,0,0,0,8481,100,1,66
21.58513311072411,27.09053705899918,0,0,0,8481,100,1,67
21.58513311072411,27.03883864771541,0,0,0,8481,100,1,68
21.657561231996407,26.949086614071287,0,0,0,8481,100,1,69
21.733522354743467,26.83758731105905,0,0,0,8481,100,1,70
21.733522354743467,26.83758731105905,0,0,0,8481,100,1,71
21.733522354743467,26.863186345347707,0,0,0,8481,100,1,72
21.46723145621504,26.91520743338176,0,0,0,8481,100,1,73
21.46723145621504,26.91520743338176,0,0,0,8481,100,1,74
21.58513311072411,26.75541674844293,0,0,0,8481,100,1,75
21.58513311072411,26.75541674844293,0,0,0,8481,100,1,76
21.582077739050025,27.47450429825727,0,0,0,8481,100,1,77
21.391452162792163,28.220462629622997,0,0,0,8481,100,1,78
21.391452162792163,28.220462629622997,0,0,0,8481,100,1,79
21.316157752149607,28.160005824792375,0,0,349,8481,100,1,80
21.316157752149607,28.160005824792375,0,0,1123,8481,100,1,81
21.316157752149607,27.93233946741148,0,0,2077,8481,100,1,82
21.480147230399727,27.93233946741148,0,0,3132,8481,100,1,83
21.510121658740513,27.00957512283359,0,0,4267,8481,100,1,84
21.582077739050025,27.00957512283359,0,0,5425,8481,100,1,85
21.582077739050025,27.146588138860558,0,0,6630,8481,100,1,86
21.582077739050025,27.146588138860558,0,0,7744,8481,100,1,87
21.582077739050025,26.949086614071287,0,0,7990,8481,100,1,88
21.6707345372557,26.863186345347707,0,0,8006,8481,100,1,89
21.6707345372557,26.83758731105905,0,0,7990,8481,100,1,90
21.733522354743467,26.83758731105905,0,0,8006,8481,100,1,91
21.733522354743467,26.83758731105905,0,0,7990,8481,100,1,92
21.46723145621504,26.91520743338176,0,0,8006,8481,100,1,93
21.46723145621504,26.91520743338176,0,0,7990,8481,100,1,94
21.58513311072411,26.75541674844293,0,0,8006,8481,100,1,95
21.58513311072411,26.75541674844293,0,0,7990,8481,100,1,96
21.582077739050025,27.47450429825727,0,0,8006,8481,100,1,97
21.47964616829128,28.304800012226213,0,0,7990,8481,100,1,98
21.404789242119598,28.304800012226213,0,0,8006,8481,100,1,99
21.404789242119598,28.130157374176303,0,0,7990,8481,100,1,100
21.404789242119598,28.130157374176303,0,0,8006,8481,100,1,101
21.404789242119598,27.899730141296292,0,0,7990,8481,100,1,102
21.480147230399727,27.899730141296292,0,0,8006,8481,100,1,103
21.50707690492384,27.00957512283359,0,0,7990,8481,100,1,104
21.568850286185057,27.00957512283359,0,0,8006,8481,100,1,105
21.581574299233683,27.086702398395456,0,0,7990,8481,100,1,106
21.581574299233683,27.086702398395456,0,0,8006,8481,100,1,107
21.582077739050025,27.035011305012414,0,0,7990,8481,100,1,108
21.6570560313952,26.949086614071287,0,0,7990,8481,100,1,109
21.6707345372557,26.83758731105905,0,0,7843,8481,100,1,110
21.733522354743467,26.811638224024748,0,0,6527,8481,100,1,111
21.733522354743467,26.83758731105905,0,0,5004,8481,100,1,112
21.45418214365851,26.914579588961455,0,0,3496,8481,100,1,113
21.45418214365851,26.914579588961455,0,0,2084,8481,100,1,114
21.568347154922254,26.668848897281816,0,0,779,8481,100,1,115
21.584629457066782,26.668848897281816,0,0,13,8481,100,1,116
21.568347154922254,27.45043213094268,0,0,0,8481,100,1,117
21.47964616829128,28.21980433783594,0,0,0,8481,100,1,118
21.40731999875084,28.21980433783594,0,0,0,8481,100,1,119
21.316157752149607,28.16333527226653,0,0,0,8481,100,1,120
21.316157752149607,28.16333527226653,0,0,0,8481,100,1,121
21.316157752149607,27.814093768639705,0,0,0,8481,100,1,122
21.47964616829128,27.814093768639705,0,0,0,8481,100,1,123
21.506575214633497,26.949086614071287,0,0,0,8481,100,1,124
21.568347154922254,26.949086614071287,0,0,0,8481,100,1,125
21.582077739050025,27.060720656144753,0,0,0,8481,100,1,126
21.568347154922254,27.060720656144753,0,0,0,8481,100,1,127
21.582077739050025,26.948457979359667,0,0,0,8481,100,1,128
21.6570560313952,26.863186345347707,0,0,0,8481,100,1,129
21.6707345372557,26.840760404766527,0,0,0,8481,100,1,130
21.736091978541083,26.811638224024748,0,0,0,8481,100,1,131
21.736091978541083,26.840760404766527,0,0,36,8481,100,1,132
21.542987975987185,26.914579588961455,0,0,585,8481,100,1,133
21.542987975987185,26.914579588961455,0,0,1476,8481,100,1,134
21.568347154922254,26.690837392533663,0,0,2517,8481,100,1,135
21.568347154922254,26.690837392533663,0,0,3662,8481,100,1,136
21.492927900895474,27.44590628842025,0,0,4846,8481,100,1,137
21.47964616829128,28.25041035191423,0,0,6085,8481,100,1,138
21.404289937868395,28.25041035191423,0,0,7325,8481,100,1,139
21.32991880909662,28.243864877299266,0,0,7990,8481,100,1,140
21.32991880909662,28.243864877299266,0,0,8005,8481,100,1,141
21.32991880909662,27.785611046517328,0,0,7990,8481,100,1,142
21.47964616829128,27.785611046517328,0,0,8006,8481,100,1,143
21.506575214633497,27.03438066595668,0,0,7990,8481,100,1,144
21.581574299233683,27.03438066595668,0,0,8006,8481,100,1,145
21.582077739050025,27.060720656144753,0,0,7990,8481,100,1,146
21.582077739050025,27.060720656144753,0,0,8006,8481,100,1,147
21.582077739050025,26.948457979359667,0,0,7990,8481,100,1,148
21.6570560313952,26.836961277264237,0,0,8006,8481,100,1,149
21.670229029364048,26.811638224024748,0,0,7990,8481,100,1,150
21.733015382215843,26.751629524058337,0,0,8006,8481,100,1,151
21.733015382215843,26.751629524058337,0,0,7990,8481,100,1,152
21.46673069538967,26.914579588961455,0,0,8006,8481,100,1,153
21.46673069538967,26.914579588961455,0,0,7990,8481,100,1,154
21.568347154922254,26.69146001765306,0,0,8006,8481,100,1,155
21.568850286185057,26.69146001765306,0,0,7990,8481,100,1,156
21.568347154922254,27.30926237768363,0,0,8006,8481,100,1,157
21.47964616829128,28.197148754472106,0,0,7990,8481,100,1,158
21.39095316965173,28.197148754472106,0,0,8006,8481,100,1,159
21.32991880909662,28.159348943266323,0,0,7990,8481,100,1,160
21.32991880909662,28.159348943266323,0,0,7992,8481,100,1,161
21.32991880909662,27.814093768639705,0,0,7990,8481,100,1,162
21.39095316965173,27.814093768639705,0,0,7039,8481,100,1,163
21.41799373083135,27.008945077121417,0,0,5529,8481,100,1,164
21.581574299233683,27.008945077121417,0,0,4015,8481,100,1,165
21.581574299233683,27.06008941737331,0,0,2590,8481,100,1,166
21.581574299233683,27.06008941737331,0,0,1267,8481,100,1,167
21.581574299233683,26.948457979359667,0,0,189,8481,100,1,168
21.6570560313952,26.836961277264237,0,0,0,8481,100,1,169
21.670229029364048,26.836961277264237,0,0,0,8481,100,1,170
21.733015382215843,26.811638224024748,0,0,0,8481,100,1,171
21.733015382215843,26.836961277264237,0,0,0,8481,100,1,172
21.46673069538967,26.91520743338176,0,0,0,8481,100,1,173
21.46673069538967,26.91520743338176,0,0,0,8481,100,1,174
21.47964616829128,26.690837392533663,0,0,0,8481,100,1,175
21.47964616829128,26.690837392533663,0,0,0,8481,100,1,176
21.47964616829128,27.332909568263368,0,0,0,8481,100,1,177
21.47964616829128,28.16619946362188,0,0,0,8481,100,1,178
21.39095316965173,28.243864877299266,0,0,0,8481,100,1,179
21.32942125132958,28.16619946362188,0,0,0,8481,100,1,180
21.32942125132958,28.243864877299266,0,0,0,8481,100,1,181
21.32942125132958,27.814093768639705,0,0,17,8481,100,1,182
21.47964616829128,27.814093768639705,0,0,494,8481,100,1,183
21.492927900895474,27.008945077121417,0,0,1340,8481,100,1,184
21.492927900895474,27.008945077121417,0,0,2350,8481,100,1,185
21.581574299233683,27.149797766723317,0,0,3475,8481,100,1,186
21.581574299233683,27.149797766723317,0,0,4653,8481,100,1,187
21.584629457066782,26.948457979359667,0,0,5894,8481,100,1,188
21.6570560313952,26.840760404766527,0,0,7144,8481,100,1,189
21.67329673744902,26.836961277264237,0,0,7989,8481,100,1,190
21.733015382215843,26.836961277264237,0,0,7990,8481,100,1,191
21.733015382215843,26.836961277264237,0,0,7990,8481,100,1,192
21.45418214365851,26.914579588961455,0,0,8006,8481,100,1,193
21.45418214365851,26.914579588961455,0,0,7990,8481,100,1,194
21.47964616829128,26.7766861061395,0,0,8006,8481,100,1,195
21.568347154922254,26.7766861061395,0,0,7990,8481,100,1,196
21.47964616829128,27.220034421065147,0,0,8006,8481,100,1,197
21.47964616829128,28.11306426781532,0,0,7990,8481,100,1,198
21.31566051538336,28.243864877299266,0,0,8006,8481,100,1,199
21.31566051538336,28.11306426781532,0,0,7990,8481,100,1,200
21.31566051538336,28.243864877299266,0,0,8006,8481,100,1,201
21.32942125132958,27.90367990212188,0,0,7990,8481,100,1,202
21.391452162792163,27.90367990212188,0,0,8006,8481,100,1,203
21.492927900895474,26.948457979359667,0,0,7990,8481,100,1,204
21.492927900895474,26.948457979359667,0,0,8006,8481,100,1,205
21.581574299233683,27.086702398395456,0,0,7990,8481,100,1,206
21.581574299233683,27.086702398395456,0,0,8006,8481,100,1,207
21.582077739050025,26.948457979359667,0,0,7990,8481,100,1,208
21.6570560313952,26.84138670447532,0,0,8006,8481,100,1,209
21.6738024600601,26.840760404766527,0,0,7990,8481,100,1,210
21.736091978541083,26.836961277264237,0,0,8006,8481,100,1,211
21.736091978541083,26.840760404766527,0,0,7990,8481,100,1,212
21.46673069538967,26.914579588961455,0,0,7990,8481,100,1,213
21.46673069538967,26.914579588961455,0,0,7523,8481,100,1,214
21.581574299233683,26.7766861061395,0,0,5991,8481,100,1,215
21.581574299233683,26.7766861061395,0,0,4449,8481,100,1,216
21.482686896846733,27.19655269571177,0,0,2947,8481,100,1,217
21.393981342537902,28.14834182345093,0,0,1561,8481,100,1,218
21.31566051538336,28.243864877299266,0,0,333,8481,100,1,219
21.31566051538336,28.14834182345093,0,0,0,8481,100,1,220
21.31566051538336,28.243864877299266,0,0,0,8481,100,1,221
21.332440713557315,27.93168771211035,0,0,0,8481,100,1,222
21.47964616829128,27.93168771211035,0,0,0,8481,100,1,223
21.509619755352315,27.01276855120964,0,0,0,8481,100,1,224
21.581574299233683,27.01276855120964,0,0,0,8481,100,1,225
21.581574299233683,27.086070553554308,0,0,0,8481,100,1,226
21.581574299233683,27.086070553554308,0,0,0,8481,100,1,227
21.581574299233683,27.03438066595668,0,0,0,8481,100,1,228
21.6570560313952,26.948457979359667,0,0,0,8481,100,1,229
21.670229029364048,26.836961277264237,0,0,0,8481,100,1,230
21.745772701153566,26.836961277264237,0,0,0,8481,100,1,231
21.745772701153566,26.836961277264237,0,0,0,8481,100,1,232
21.46673069538967,26.914579588961455,0,0,0,8481,100,1,233
21.46673069538967,26.914579588961455,0,0,0,8481,100,1,234
21.581574299233683,26.78047670089257,0,0,57,8481,100,1,235
21.581574299233683,26.78047670089257,0,0,654,8481,100,1,236
21.568347154922254,27.305396936906188,0,0,1550,8481,100,1,237
21.40731999875084,28.31237492400853,0,0,2598,8481,100,1,238
21.404289937868395,28.31237492400853,0,0,3722,8481,100,1,239
21.32942125132958,28.189450263377633,0,0,4914,8481,100,1,240
21.32942125132958,28.189450263377633,0,0,6118,8481,100,1,241
21.32942125132958,27.960384992964613,0,0,7374,8481,100,1,242
21.479144699243445,27.89907933115706,0,0,7990,8481,100,1,243
21.492927900895474,27.09497263657957,0,0,7990,8481,100,1,244
21.492927900895474,27.09497263657957,0,0,8006,8481,100,1,245
21.581574299233683,27.145954897079477,0,0,7990,8481,100,1,246
21.581574299233683,27.145954897079477,0,0,8006,8481,100,1,247
21.581574299233683,27.03438066595668,0,0,7990,8481,100,1,248
21.66012187466775,26.90150683386839,0,0,8006,8481,100,1,249
21.66972311092235,26.86193257455278,0,0,7990,8481,100,1,250
21.733015382215843,26.836961277264237,0,0,8006,8481,100,1,251
21.733015382215843,26.836961277264237,0,0,7990,8481,100,1,252
21.558536293879868,26.9780671848686,0,0,8006,8481,100,1,253
21.558536293879868,26.9780671848686,0,0,7990,8481,100,1,254
21.5714004402778,26.78047670089257,0,0,8006,8481,100,1,255
21.5714004402778,26.78047670089257,0,0,7990,8481,100,1,0
21.568347154922254,27.192703208224998,0,0,8006,8481,100,1,1
21.495970509656185,28.43172392090901,0,0,7990,8481,100,1,2
21.315162874784498,28.43172392090901,0,0,8006,8481,100,1,3
21.315162874784498,28.18879214561015,0,0,7990,8481,100,1,4
21.315162874784498,28.18879214561015,0,0,8006,8481,100,1,5
21.32942125132958,28.015244528836416,0,0,7990,8481,100,1,6
21.39095316965173,27.927734171250403,0,0,8006,8481,100,1,7
21.506575214633497,27.03438066595668,0,0,7990,8481,100,1,8
21.581070450546896,27.03438066595668,0,0,7316,8481,100,1,9
21.581574299233683,27.171853930679006,0,0,5741,8481,100,1,10
21.581070450546896,27.171853930679006,0,0,4134,8481,100,1,11
21.581574299233683,27.03438066595668,0,0,2597,8481,100,1,12
21.6570560313952,26.922312665202483,0,0,1142,8481,100,1,13
21.66972311092235,26.840760404766527,0,0,81,8481,100,1,14
21.736091978541083,26.836961277264237,0,0,0,8481,100,1,15
21.736091978541083,26.840760404766527,0,0,0,8481,100,1,16
21.5460376714149,26.89223916291841,0,0,0,8481,100,1,17
21.5460376714149,26.89223916291841,0,0,0,8481,100,1,18
21.581070450546896,26.77606097110792,0,0,0,8481,100,1,19
21.581070450546896,26.77606097110792,0,0,0,8481,100,1,20
21.47964616829128,27.16564041447844,0,0,0,8481,100,1,21
21.479144699243445,28.427035923322236,0,0,0,8481,100,1,22
21.403790228105464,28.427035923322236,0,0,0,8481,100,1,23
21.315162874784498,28.18879214561015,0,0,0,8481,100,1,24
21.315162874784498,28.18879214561015,0,0,0,8481,100,1,25
21.315162874784498,28.15869152825159,0,0,0,8481,100,1,26
21.47964616829128,27.817381591784507,0,0,0,8481,100,1,27
21.492927900895474,27.008945077121417,0,0,0,8481,100,1,28
21.492927900895474,27.008945077121417,0,0,0,8481,100,1,29
21.581070450546896,27.14532114100882,0,0,0,8481,100,1,30
21.581070450546896,27.14532114100882,0,0,7,8481,100,1,31
21.581070450546896,26.947828834100125,0,0,480,8481,100,1,32
21.65655042049352,26.922312665202483,0,0,1372,8481,100,1,33
21.66972311092235,26.836961277264237,0,0,2447,8481,100,1,34
21.733015382215843,26.836334735033837,0,0,3620,8481,100,1,35
21.733015382215843,26.836961277264237,0,0,4870,8481,100,1,36
21.542485028146093,26.88780500505133,0,0,6137,8481,100,1,37
21.542485028146093,26.88780500505133,0,0,7441,8481,100,1,38
21.567843615039596,26.77606097110792,0,0,7990,8481,100,1,39
21.567843615039596,26.77606097110792,0,0,7990,8481,100,1,40
21.492927900895474,27.05325594881022,0,0,8006,8481,100,1,41
21.479144699243445,28.47986513621235,0,0,7990,8481,100,1,42
21.30177093083876,28.47986513621235,0,0,8006,8481,100,1,43
21.30177093083876,28.24320548915497,0,0,7990,8481,100,1,44
21.30177093083876,28.24320548915497,0,0,8006,8481,100,1,45
21.328923289469227,28.24320548915497,0,0,7990,8481,100,1,46
21.479144699243445,27.898427992460046,0,0,8006,8481,100,1,47
21.506073116893592,27.03438066595668,0,0,7990,8481,100,1,48
21.581070450546896,27.03438066595668,0,0,8006,8481,100,1,49
21.581070450546896,27.171853930679006,0,0,7990,8481,100,1,50
21.568347154922254,27.171853930679006,0,0,8006,8481,100,1,51
21.568347154922254,26.947828834100125,0,0,7990,8481,100,1,52
21.65655042049352,26.922312665202483,0,0,8006,8481,100,1,53
21.66972311092235,26.836334735033837,0,0,7990,8481,100,1,54
21.733015382215843,26.836334735033837,0,0,8006,8481,100,1,55
21.733015382215843,26.836334735033837,0,0,7990,8481,100,1,56
21.542485028146093,26.88780500505133,0,0,8006,8481,100,1,57
21.542485028146093,26.88780500505133,0,0,7990,8481,100,1,58
21.567843615039596,26.802016295016543,0,0,8006,8481,100,1,59
21.567843615039596,26.802016295016543,0,0,7990,8481,100,1,60
21.567843615039596,27.05262435691177,0,0,7311,8481,100,1,61
21.479144699243445,28.47986513621235,0,0,5785,8481,100,1,62
21.390453771252233,28.47986513621235,0,0,4239,8481,100,1,63
21.328923289469227,28.24320548915497,0,0,2768,8481,100,1,64
21.328923289469227,28.24320548915497,0,0,1386,8481,100,1,65
21.328923289469227,28.24320548915497,0,0,224,8481,100,1,66
21.479144699243445,27.817381591784507,0,0,0,8481,100,1,67
21.509117444351432,27.008314519715366,0,0,0,8481,100,1,68
21.567843615039596,27.008314519715366,0,0,0,8481,100,1,69
21.567843615039596,27.14532114100882,0,0,0,8481,100,1,70
21.567843615039596,27.14532114100882,0,0,0,8481,100,1,71
21.581070450546896,27.033749514725177,0,0,0,8481,100,1,72
21.65655042049352,26.92294121474143,0,0,0,8481,100,1,73
21.670229029364048,26.922312665202483,0,0,0,8481,100,1,74
21.74526501905092,26.89707114789069,0,0,0,8481,100,1,75
21.74526501905092,26.89707114789069,0,0,0,8481,100,1,76
21.466229527869615,26.913951234635057,0,0,0,8481,100,1,77
21.466229527869615,26.913951234635057,0,0,0,8481,100,1,78
21.567843615039596,26.802016295016543,0,0,0,8481,100,1,79
21.567843615039596,26.802016295016543,0,0,0,8481,100,1,80
21.567843615039596,27.05325594881022,0,0,0,8481,100,1,81
21.479144699243445,28.563991656242024,0,0,40,8481,100,1,82
21.390453771252233,28.563991656242024,0,0,598,8481,100,1,83
21.390453771252233,28.24320548915497,0,0,1488,8481,100,1,84
21.390453771252233,28.24320548915497,0,0,2527,8481,100,1,85
21.41749370113633,28.24320548915497,0,0,3672,8481,100,1,86
21.479144699243445,27.870032785250643,0,0,4860,8481,100,1,87
21.479144699243445,27.033749514725177,0,0,6103,8481,100,1,88
21.479144699243445,27.033749514725177,0,0,7344,8481,100,1,89
21.479144699243445,27.14532114100882,0,0,7990,8481,100,1,90
21.567843615039596,27.14532114100882,0,0,8005,8481,100,1,91
21.581070450546896,27.033749514725177,0,0,7990,8481,100,1,92
21.65655042049352,26.922312665202483,0,0,8006,8481,100,1,93
21.66972311092235,26.89707114789069,0,0,7990,8481,100,1,94
21.73250799794867,26.86193257455278,0,0,8006,8481,100,1,95
21.73250799794867,26.89707114789069,0,0,7990,8481,100,1,96
21.466229527869615,26.999682003543157,0,0,8006,8481,100,1,97
21.466229527869615,26.999682003543157,0,0,7990,8481,100,1,98
21.567843615039596,26.802016295016543,0,0,8006,8481,100,1,99
21.581070450546896,26.802016295016543,0,0,7990,8481,100,1,100
21.581070450546896,27.026017429209034,0,0,8006,8481,100,1,101
21.479144699243445,28.563991656242024,0,0,7990,8481,100,1,102
21.30177093083876,28.563991656242024,0,0,8006,8481,100,1,103
21.30177093083876,28.32708917245399,0,0,7990,8481,100,1,104
21.30177093083876,28.32708917245399,0,0,8006,8481,100,1,105
21.328424923603706,28.32708917245399,0,0,7990,8481,100,1,106
21.38742665582829,27.898427992460046,0,0,8006,8481,100,1,107
21.492426121769082,27.119694384315192,0,0,7990,8481,100,1,108
21.476105032534758,27.119694384315192,0,0,8006,8481,100,1,109
21.479144699243445,27.14532114100882,0,0,7990,8481,100,1,110
21.479144699243445,27.14532114100882,0,0,7990,8481,100,1,111
21.479144699243445,27.059457665939043,0,0,7570,8481,100,1,112
21.567843615039596,26.922312665202483,0,0,6031,8481,100,1,113
21.66972311092235,26.922312665202483,0,0,4454,8481,100,1,114
21.73250799794867,26.922312665202483,0,0,2902,8481,100,1,115
21.73250799794867,26.922312665202483,0,0,1448,8481,100,1,116
21.466229527869615,26.999682003543157,0,0,217,8481,100,1,117
21.466229527869615,26.999682003543157,0,0,0,8481,100,1,118
21.479144699243445,26.802016295016543,0,0,0,8481,100,1,119
21.567843615039596,26.802016295016543,0,0,0,8481,100,1,120
21.479144699243445,26.999682003543157,0,0,0,8481,100,1,121
21.479144699243445,28.364757936711122,0,0,0,8481,100,1,122
21.30177093083876,28.448942286988967,0,0,0,8481,100,1,123
21.30177093083876,28.448942286988967,0,0,0,8481,100,1,124
21.30177093083876,28.448942286988967,0,0,0,8481,100,1,125
21.41749370113633,28.32775107104067,0,0,0,8481,100,1,126
21.390453771252233,27.756740674914088,0,0,0,8481,100,1,127
21.492426121769082,27.119694384315192,0,0,0,8481,100,1,128
21.492426121769082,27.119694384315192,0,0,0,8481,100,1,129
21.506073116893592,27.14532114100882,0,0,0,8481,100,1,130
21.506073116893592,27.14532114100882,0,0,0,8481,100,1,131
21.581070450546896,27.033749514725177,0,0,0,8481,100,1,132
21.65655042049352,26.922312665202483,0,0,0,8481,100,1,133
21.68325851927043,26.922312665202483,0,0,0,8481,100,1,134
21.732000202031767,26.86193257455278,0,0,215,8481,100,1,135
21.732000202031767,26.86193257455278,0,0,1041,8481,100,1,136
21.466229527869615,26.88780500505133,0,0,2101,8481,100,1,137
21.466229527869615,26.88780500505133,0,0,3310,8481,100,1,138
21.478642823345005,26.887176751855822,0,0,4586,8481,100,1,139
21.567843615039596,26.887176751855822,0,0,5923,8481,100,1,140
21.478642823345005,26.913951234635057,0,0,7254,8481,100,1,141
21.478642823345005,28.364095173432002,0,0,7990,8481,100,1,142
21.301273199407927,28.448277556681045,0,0,8004,8481,100,1,143
21.301273199407927,28.448277556681045,0,0,7990,8481,100,1,144
21.301273199407927,28.448277556681045,0,0,8006,8481,100,1,145
21.328424923603706,28.32708917245399,0,0,7990,8481,100,1,146
21.41749370113633,27.784962356878502,0,0,8006,8481,100,1,147
21.478642823345005,27.119694384315192,0,0,7990,8481,100,1,148
21.492426121769082,27.119694384315192,0,0,8006,8481,100,1,149
21.492426121769082,27.16737437720913,0,0,7990,8481,100,1,150
21.492426121769082,27.16737437720913,0,0,8006,8481,100,1,151
21.567843615039596,27.033749514725177,0,0,7990,8481,100,1,152
21.656044399380875,26.922312665202483,0,0,8006,8481,100,1,153
21.66972311092235,26.921683605710307,0,0,7990,8481,100,1,154
21.732000202031767,26.835707684478777,0,0,8006,8481,100,1,155
21.732000202031767,26.835707684478777,0,0,7990,8481,100,1,156
21.466229527869615,26.999682003543157,0,0,8006,8481,100,1,157
21.466229527869615,26.999682003543157,0,0,7990,8481,100,1,158
21.567843615039596,26.88780500505133,0,0,8006,8481,100,1,159
21.58056619307886,26.88780500505133,0,0,7990,8481,100,1,160
21.58056619307886,26.972988616849896,0,0,8006,8481,100,1,161
21.491923935540505,28.448277556681045,0,0,7990,8481,100,1,162
21.301273199407927,28.448277556681045,0,0,8006,8481,100,1,163
21.301273199407927,28.448277556681045,0,0,7990,8481,100,1,164
21.301273199407927,28.448277556681045,0,0,7306,8481,100,1,165
21.328424923603706,28.32708917245399,0,0,5736,8481,100,1,166
21.478642823345005,27.870032785250643,0,0,4140,8481,100,1,167
21.491923935540505,27.119060712855028,0,0,2613,8481,100,1,168
21.491923935540505,27.119060712855028,0,0,1163,8481,100,1,169
21.491923935540505,27.14468687076078,0,0,88,8481,100,1,170
21.491923935540505,27.14468687076078,0,0,0,8481,100,1,171
21.567339666626225,27.033117851429644,0,0,0,8481,100,1,172
21.669216782020175,26.921683605710307,0,0,0,8481,100,1,173
21.669216782020175,26.921683605710307,0,0,0,8481,100,1,174
21.732000202031767,26.835707684478777,0,0,0,8481,100,1,175
21.732000202031767,26.835707684478777,0,0,0,8481,100,1,176
21.542485028146093,26.973618875149132,0,0,0,8481,100,1,177
21.542485028146093,26.973618875149132,0,0,0,8481,100,1,178
21.58056619307886,26.88780500505133,0,0,0,8481,100,1,179
21.58056619307886,26.88780500505133,0,0,0,8481,100,1,180
21.491923935540505,26.999051136259894,0,0,0,8481,100,1,181
21.491923935540505,28.30281762633453,0,0,0,8481,100,1,182
21.301273199407927,28.448277556681045,0,0,0,8481,100,1,183
21.301273199407927,28.448277556681045,0,0,0,8481,100,1,184
21.314664830441114,28.448277556681045,0,0,0,8481,100,1,185
21.328424923603706,28.32708917245399,0,0,0,8481,100,1,186
21.478642823345005,27.78431314094643,0,0,0,8481,100,1,187
21.491923935540505,27.119060712855028,0,0,10,8481,100,1,188
21.491923935540505,27.119060712855028,0,0,514,8481,100,1,189
21.491923935540505,27.166739771318152,0,0,1463,8481,100,1,190
21.491923935540505,27.166739771318152,0,0,2589,8481,100,1,191
21.567339666626225,27.033117851429644,0,0,3829,8481,100,1,192
21.656044399380875,26.921683605710307,0,0,5115,8481,100,1,193
21.669216782020175,26.835707684478777,0,0,6454,8481,100,1,194
21.732000202031767,26.835707684478777,0,0,7702,8481,100,1,195
21.732000202031767,26.835707684478777,0,0,7990,8481,100,1,196
21.54198167225462,26.887176751855822,0,0,8006,8481,100,1,197
21.54198167225462,26.887176751855822,0,0,7990,8481,100,1,198
21.58056619307886,26.887176751855822,0,0,8006,8481,100,1,199
21.58056619307886,26.887176751855822,0,0,7990,8481,100,1,200
21.491923935540505,26.972988616849896,0,0,8006,8481,100,1,201
21.478642823345005,28.24909073490403,0,0,7990,8481,100,1,202
21.38995396768208,28.479199683369472,0,0,8006,8481,100,1,203
21.38995396768208,28.479199683369472,0,0,7990,8481,100,1,204
21.38995396768208,28.479199683369472,0,0,8006,8481,100,1,205
21.403290112919258,28.32708917245399,0,0,7990,8481,100,1,206
21.38995396768208,27.756092118402226,0,0,8006,8481,100,1,207
21.491923935540505,27.119060712855028,0,0,7990,8481,100,1,208
21.491923935540505,27.119060712855028,0,0,8006,8481,100,1,209
21.491923935540505,27.166739771318152,0,0,7990,8481,100,1,210
21.564287661419097,27.166739771318152,0,0,8006,8481,100,1,211
21.564287661419097,27.029292381171246,0,0,7990,8481,100,1,212
21.655537968146835,26.921683605710307,0,0,8006,8481,100,1,213
21.669216782020175,26.89644267818499,0,0,7990,8481,100,1,214
21.732000202031767,26.895813699115422,0,0,8006,8481,100,1,215
21.732000202031767,26.887176751855822,0,0,7990,8481,100,1,216
21.54198167225462,26.887176751855822,0,0,7990,8481,100,1,217
21.54198167225462,26.887176751855822,0,0,7874,8481,100,1,218
21.567339666626225,26.887176751855822,0,0,6550,8481,100,1,219
21.567339666626225,26.887176751855822,0,0,4946,8481,100,1,220
21.491923935540505,26.972988616849896,0,0,3348,8481,100,1,221
21.478642823345005,28.218486150476366,0,0,1845,8481,100,1,222
21.301273199407927,28.479199683369472,0,0,470,8481,100,1,223
21.301273199407927,28.479199683369472,0,0,0,8481,100,1,224
21.31416638244137,28.479199683369472,0,0,0,8481,100,1,225
21.328424923603706,28.32708917245399,0,0,0,8481,100,1,226
21.38692706441544,27.78431314094643,0,0,0,8481,100,1,227
21.416993265758475,27.007683450727068,0,0,0,8481,100,1,228
21.478642823345005,27.007683450727068,0,0,0,8481,100,1,229
21.478642823345005,27.170584694579457,0,0,0,8481,100,1,230
21.48888260245184,27.170584694579457,0,0,0,8481,100,1,231
21.5637835186443,27.028660474257567,0,0,0,8481,100,1,232
21.655537968146835,26.895813699115422,0,0,0,8481,100,1,233
21.669216782020175,26.835707684478777,0,0,0,8481,100,1,234
21.732000202031767,26.83508012571004,0,0,0,8481,100,1,235
21.732000202031767,26.83508012571004,0,0,0,8481,100,1,236
21.462690327661626,26.883371933796656,0,0,0,8481,100,1,237
21.462690327661626,26.887176751855822,0,0,0,8481,100,1,238
21.567339666626225,26.887176751855822,0,0,0,8481,100,1,239
21.567339666626225,26.887176751855822,0,0,0,8481,100,1,240
21.5637835186443,26.887176751855822,0,0,0,8481,100,1,241
21.491923935540505,28.213833322908002,0,0,129,8481,100,1,242
21.297760922007402,28.47450386784255,0,0,877,8481,100,1,243
21.297760922007402,28.47450386784255,0,0,1896,8481,100,1,244
21.311150344950835,28.47450386784255,0,0,3047,8481,100,1,245
21.32490816926951,28.322418437789835,0,0,4296,8481,100,1,246
21.37698551692584,27.783663398836033,0,0,5574,8481,100,1,247
21.402789592398314,27.007683450727068,0,0,6894,8481,100,1,248
21.488380222541476,27.007683450727068,0,0,7910,8481,100,1,249
21.488380222541476,27.140845612313697,0,0,7990,8481,100,1,250
21.488380222541476,27.140845612313697,0,0,8006,8481,100,1,251
21.5637835186443,27.028660474257567,0,0,7990,8481,100,1,252
21.655537968146835,26.921054036376248,0,0,8006,8481,100,1,253
21.665643835948917,26.831282857439334,0,0,7990,8481,100,1,254
21.72841690386629,26.831282857439334,0,0,8006,8481,100,1,255
21.72841690386629,26.831282857439334,0,0,7990,8481,100,1,0
21.462188560089878,26.883371933796656,0,0,8006,8481,100,1,1
21.462188560089878,26.883371933796656,0,0,7990,8481,100,1,2
21.56683530977135,26.797597367998055,0,0,8006,8481,100,1,3
21.577512316179238,26.797597367998055,0,0,7990,8481,100,1,4
21.56683530977135,26.887176751855822,0,0,8006,8481,100,1,5
21.478140540684795,28.187474308364425,0,0,7990,8481,100,1,6
21.297760922007402,28.589688245300977,0,0,8006,8481,100,1,7
21.297760922007402,28.589688245300977,0,0,7990,8481,100,1,8
21.311150344950835,28.52778867838969,0,0,8006,8481,100,1,9
21.40026132244792,28.3264267374099,0,0,7990,8481,100,1,10
21.38692706441544,27.780381368660493,0,0,8006,8481,100,1,11
21.40026132244792,27.033117851429644,0,0,7990,8481,100,1,12
21.488380222541476,27.033117851429644,0,0,8006,8481,100,1,13
21.491923935540505,27.14468687076078,0,0,7990,8481,100,1,14
21.55447794187852,27.14468687076078,0,0,7284,8481,100,1,15
21.567339666626225,27.033117851429644,0,0,5717,8481,100,1,16
21.655537968146835,26.921683605710307,0,0,4120,8481,100,1,17
21.669216782020175,26.921054036376248,0,0,2591,8481,100,1,18
21.731491994555025,26.83508012571004,0,0,1143,8481,100,1,19
21.731491994555025,26.83508012571004,0,0,82,8481,100,1,20
21.46572795374358,26.882743438298203,0,0,0,8481,100,1,21
21.46572795374358,26.887176751855822,0,0,0,8481,100,1,22
21.58056619307886,26.887176751855822,0,0,0,8481,100,1,23
21.58056619307886,26.887176751855822,0,0,0,8481,100,1,24
21.491923935540505,26.887176751855822,0,0,0,8481,100,1,25
21.491923935540505,28.07355349950166,0,0,0,8481,100,1,26
21.30077506457434,28.593734369991324,0,0,0,8481,100,1,27
21.30077506457434,28.593734369991324,0,0,0,8481,100,1,28
21.30077506457434,28.593734369991324,0,0,0,8481,100,1,29
21.327926153821235,28.3264267374099,0,0,0,8481,100,1,30
21.386427068082433,27.755443036246472,0,0,0,8481,100,1,31
21.488380222541476,27.114589164925782,0,0,0,8481,100,1,32
21.399761014378683,27.114589164925782,0,0,0,8481,100,1,33
21.488380222541476,27.140845612313697,0,0,0,8481,100,1,34
21.48888260245184,27.140845612313697,0,0,0,8481,100,1,35
21.5637835186443,27.05436378597176,0,0,0,8481,100,1,36
21.56683530977135,26.921054036376248,0,0,0,8481,100,1,37
21.668710042747147,26.809758847503883,0,0,208,8481,100,1,38
21.731491994555025,26.809758847503883,0,0,1001,8481,100,1,39
21.731491994555025,26.809758847503883,0,0,2021,8481,100,1,40
21.462188560089878,26.90888474591503,0,0,3163,8481,100,1,41
21.462188560089878,26.90888474591503,0,0,4392,8481,100,1,42
21.491923935540505,26.796970877788546,0,0,5640,8481,100,1,43
21.491923935540505,26.796970877788546,0,0,6924,8481,100,1,44
21.491923935540505,26.887176751855822,0,0,7912,8481,100,1,45
21.491421342298644,28.013280784869934,0,0,7990,8481,100,1,46
21.30077506457434,28.593734369991324,0,0,8006,8481,100,1,47
21.30077506457434,28.593734369991324,0,0,7990,8481,100,1,48
21.30077506457434,28.593734369991324,0,0,8006,8481,100,1,49
21.32490816926951,28.26789376307473,0,0,7990,8481,100,1,50
21.38945375902974,27.78431314094643,0,0,8006,8481,100,1,51
21.502527347556256,27.11522308077859,0,0,7990,8481,100,1,52
21.5020246486509,27.11522308077859,0,0,8006,8481,100,1,53
21.5020246486509,27.170584694579457,0,0,7990,8481,100,1,54
21.491923935540505,27.170584694579457,0,0,8006,8481,100,1,55
21.491923935540505,27.028660474257567,0,0,7990,8481,100,1,56
21.56683530977135,26.921054036376248,0,0,8006,8481,100,1,57
21.668710042747147,26.921054036376248,0,0,7990,8481,100,1,58
21.744248419261456,26.83508012571004,0,0,8006,8481,100,1,59
21.744248419261456,26.83508012571004,0,0,7990,8481,100,1,60
21.462188560089878,26.972357847737165,0,0,8006,8481,100,1,61
21.462188560089878,26.972357847737165,0,0,7990,8481,100,1,62
21.491421342298644,26.882743438298203,0,0,8006,8481,100,1,63
21.491421342298644,26.882743438298203,0,0,7990,8481,100,1,64
21.491421342298644,26.882743438298203,0,0,8006,8481,100,1,65
21.488380222541476,28.042961422777722,0,0,7990,8481,100,1,66
21.30077506457434,28.677799303811856,0,0,7643,8481,100,1,67
21.30077506457434,28.677799303811856,0,0,6215,8481,100,1,68
21.31416638244137,28.61607284421303,0,0,4672,8481,100,1,69
21.327926153821235,28.24188510806378,0,0,3185,8481,100,1,70
21.38945375902974,27.783663398836033,0,0,1761,8481,100,1,71
21.48888260245184,27.089872947456602,0,0,465,8481,100,1,72
21.48888260245184,27.089872947456602,0,0,0,8481,100,1,73
21.491421342298644,27.14405208644763,0,0,0,8481,100,1,74
21.491421342298644,27.14405208644763,0,0,0,8481,100,1,75
21.491421342298644,27.028660474257567,0,0,0,8481,100,1,76
21.655537968146835,26.921054036376248,0,0,0,8481,100,1,77
21.668710042747147,26.921054036376248,0,0,0,8481,100,1,78
21.731491994555025,26.831282857439334,0,0,0,8481,100,1,79
21.731491994555025,26.831282857439334,0,0,0,8481,100,1,80
21.462188560089878,26.882743438298203,0,0,0,8481,100,1,81
21.462188560089878,26.886547989471925,0,0,0,8481,100,1,82
21.57700786423058,26.886547989471925,0,0,0,8481,100,1,83
21.57700786423058,26.882743438298203,0,0,0,8481,100,1,84
21.488380222541476,26.882743438298203,0,0,0,8481,100,1,85
21.488380222541476,28.00931679662081,0,0,0,8481,100,1,86
21.297760922007402,28.673741283606223,0,0,0,8481,100,1,87
21.297760922007402,28.673741283606223,0,0,0,8481,100,1,88
21.311150344950835,28.5586145512505,0,0,0,8481,100,1,89
21.41346190776262,28.26789376307473,0,0,325,8481,100,1,90
21.386427068082433,27.751515533042195,0,0,1173,8481,100,1,91
21.488380222541476,27.028660474257567,0,0,2215,8481,100,1,92
21.488380222541476,27.028660474257567,0,0,3365,8481,100,1,93
21.488380222541476,27.166104651077436,0,0,4593,8481,100,1,94
21.5020246486509,27.166104651077436,0,0,5840,8481,100,1,95
21.5637835186443,27.028660474257567,0,0,7135,8481,100,1,96
21.66513690165013,26.9166147908299,0,0,7970,8481,100,1,97
21.668710042747147,26.83508012571004,0,0,7990,8481,100,1,98
21.741171523488983,26.809758847503883,0,0,8006,8481,100,1,99
21.741171523488983,26.809758847503883,0,0,7990,8481,100,1,100
21.475101300212742,26.886547989471925,0,0,8006,8481,100,1,101
21.475101300212742,26.886547989471925,0,0,7990,8481,100,1,102
21.58006152691883,26.886547989471925,0,0,8006,8481,100,1,103
21.58006152691883,26.886547989471925,0,0,7990,8481,100,1,104
21.58006152691883,26.887176751855822,0,0,8006,8481,100,1,105
21.491923935540505,27.869883464597642,0,0,7990,8481,100,1,106
21.30077506457434,28.625059510685926,0,0,8006,8481,100,1,107
21.30077506457434,28.625059510685926,0,0,7990,8481,100,1,108
21.31416638244137,28.562656278269923,0,0,8006,8481,100,1,109
21.416492424786366,28.21782625513719,0,0,7990,8481,100,1,110
21.38945375902974,27.755443036246472,0,0,8006,8481,100,1,111
21.491421342298644,27.007051870268217,0,0,7990,8481,100,1,112
21.491421342298644,27.007051870268217,0,0,8006,8481,100,1,113
21.491421342298644,27.166104651077436,0,0,7990,8481,100,1,114
21.491421342298644,27.166104651077436,0,0,8006,8481,100,1,115
21.56683530977135,27.032485676181896,0,0,7990,8481,100,1,116
21.655537968146835,26.921054036376248,0,0,8006,8481,100,1,117
21.668710042747147,26.895813699115422,0,0,7990,8481,100,1,118
21.731491994555025,26.83508012571004,0,0,7990,8481,100,1,119
21.731491994555025,26.83508012571004,0,0,7522,8481,100,1,120
21.541477908401866,26.860676768519795,0,0,5991,8481,100,1,121
21.541477908401866,26.886547989471925,0,0,4444,8481,100,1,122
21.58006152691883,26.886547989471925,0,0,2931,8481,100,1,123
21.58006152691883,26.886547989471925,0,0,1524,8481,100,1,124
21.58006152691883,26.886547989471925,0,0,292,8481,100,1,125
21.491421342298644,27.785109824294427,0,0,0,8481,100,1,126
21.300276526426167,28.677128108659794,0,0,0,8481,100,1,127
21.300276526426167,28.677128108659794,0,0,0,8481,100,1,128
21.310651705116346,28.557946334725223,0,0,0,8481,100,1,129
21.41346190776262,28.12954866704081,0,0,0,8481,100,1,130
21.386427068082433,27.723560284783225,0,0,0,8481,100,1,131
21.488380222541476,27.003230267326405,0,0,0,8481,100,1,132
21.488380222541476,27.003230267326405,0,0,0,8481,100,1,133
21.488380222541476,27.166104651077436,0,0,0,8481,100,1,134
21.56327896768057,27.166104651077436,0,0,0,8481,100,1,135
21.56327896768057,27.02802805570825,0,0,0,8481,100,1,136
21.652473625248426,26.921054036376248,0,0,0,8481,100,1,137
21.668710042747147,26.917244602462603,0,0,0,8481,100,1,138
21.744248419261456,26.831282857439334,0,0,0,8481,100,1,139
21.744248419261456,26.831282857439334,0,0,0,8481,100,1,140
21.538429705445797,26.85687587822452,0,0,0,8481,100,1,141
21.538429705445797,26.882743438298203,0,0,5,8481,100,1,142
21.576503003842657,26.882743438298203,0,0,440,8481,100,1,143
21.576503003842657,26.882743438298203,0,0,1285,8481,100,1,144
21.491421342298644,26.882743438298203,0,0,2288,8481,100,1,145
21.488380222541476,27.727193951368843,0,0,3396,8481,100,1,146
21.300276526426167,28.677128108659794,0,0,4550,8481,100,1,147
21.300276526426167,28.677128108659794,0,0,5757,8481,100,1,148
21.310651705116346,28.557946334725223,0,0,6963,8481,100,1,149
21.412960874034795,28.159580895599817,0,0,7936,8481,100,1,150
21.385926666917737,27.609937168251708,0,0,7990,8481,100,1,151
21.487877435869514,27.003230267326405,0,0,7990,8481,100,1,152
21.488380222541476,27.003230267326405,0,0,8006,8481,100,1,153
21.488380222541476,27.140211097442066,0,0,7990,8481,100,1,154
21.56327896768057,27.140211097442066,0,0,8006,8481,100,1,155
21.56327896768057,27.02802805570825,0,0,7990,8481,100,1,156
21.651966999107177,26.9166147908299,0,0,8006,8481,100,1,157
21.66513690165013,26.9166147908299,0,0,7990,8481,100,1,158
21.731491994555025,26.809758847503883,0,0,8006,8481,100,1,159
21.731491994555025,26.809758847503883,0,0,7990,8481,100,1,160
21.537925747712418,26.88211443392623,0,0,8006,8481,100,1,161
21.537925747712418,26.90888474591503,0,0,7990,8481,100,1,162
21.5637835186443,26.90888474591503,0,0,8006,8481,100,1,163
21.5637835186443,26.88211443392623,0,0,7990,8481,100,1,164
21.487877435869514,26.88211443392623,0,0,8006,8481,100,1,165
21.474598824241962,27.722621774436433,0,0,7990,8481,100,1,166
21.297262595459593,28.505002272397757,0,0,8006,8481,100,1,167
21.297262595459593,28.505002272397757,0,0,7990,8481,100,1,168
21.310651705116346,28.58901930171117,0,0,8006,8481,100,1,169
21.324409207528447,28.190522913903852,0,0,7990,8481,100,1,170
21.372960657861547,27.665755988379786,0,0,7989,8481,100,1,171
21.412960874034795,27.113954735810758,0,0,7228,8481,100,1,172
21.487877435869514,27.113954735810758,0,0,5743,8481,100,1,173
21.487877435869514,27.140211097442066,0,0,4291,8481,100,1,174
21.488380222541476,27.140211097442066,0,0,2882,8481,100,1,175
21.56327896768057,27.02802805570825,0,0,1577,8481,100,1,176
21.651966999107177,26.9166147908299,0,0,397,8481,100,1,177
21.66513690165013,26.891378615666692,0,0,0,8481,100,1,178
21.74066282198791,26.805337954384264,0,0,0,8481,100,1,179
21.74066282198791,26.805337954384264,0,0,0,8481,100,1,180
21.538429705445797,26.882743438298203,0,0,0,8481,100,1,181
21.538429705445797,26.886547989471925,0,0,0,8481,100,1,182
21.56683530977135,26.886547989471925,0,0,0,8481,100,1,183
21.576503003842657,26.882743438298203,0,0,0,8481,100,1,184
21.576503003842657,26.882743438298203,0,0,0,8481,100,1,185
21.477637851351712,27.726545004845317,0,0,0,8481,100,1,186
21.297262595459593,28.62033927693226,0,0,0,8481,100,1,187
21.297262595459593,28.62033927693226,0,0,0,8481,100,1,188
21.310651705116346,28.505002272397757,0,0,0,8481,100,1,189
21.324409207528447,28.221715717145475,0,0,0,8481,100,1,190
21.385926666917737,27.63771530831419,0,0,0,8481,100,1,191
21.474598824241962,27.02802805570825,0,0,0,8481,100,1,192
21.474598824241962,27.02802805570825,0,0,0,8481,100,1,193
21.487877435869514,27.139576068823214,0,0,378,8481,100,1,194
21.487877435869514,27.139576068823214,0,0,1181,8481,100,1,195
21.56327896768057,27.02802805570825,0,0,2166,8481,100,1,196
21.651966999107177,26.9166147908299,0,0,3247,8481,100,1,197
21.66513690165013,26.891378615666692,0,0,4404,8481,100,1,198
21.727908500798726,26.830655057145744,0,0,5578,8481,100,1,199
21.727908500798726,26.856247479103587,0,0,6794,8481,100,1,200
21.461686386252325,26.856247479103587,0,0,7838,8481,100,1,201
21.461686386252325,26.88211443392623,0,0,7990,8481,100,1,202
21.56327896768057,26.88211443392623,0,0,8006,8481,100,1,203
21.56327896768057,26.88211443392623,0,0,7990,8481,100,1,204
21.487877435869514,26.88211443392623,0,0,8006,8481,100,1,205
21.474598824241962,27.60906410375435,0,0,7990,8481,100,1,206
21.297262595459593,28.505002272397757,0,0,8006,8481,100,1,207
21.297262595459593,28.505002272397757,0,0,7990,8481,100,1,208
21.297262595459593,28.673070373337357,0,0,8006,8481,100,1,209
21.324409207528447,28.33707155177765,0,0,7990,8481,100,1,210
21.385926666917737,27.609937168251708,0,0,8006,8481,100,1,211
21.412960874034795,27.02802805570825,0,0,7990,8481,100,1,212
21.487877435869514,27.02802805570825,0,0,8006,8481,100,1,213
21.487877435869514,27.139576068823214,0,0,7990,8481,100,1,214
21.487877435869514,27.139576068823214,0,0,8006,8481,100,1,215
21.487877435869514,27.02802805570825,0,0,7990,8481,100,1,216
21.56327896768057,26.9166147908299,0,0,8006,8481,100,1,217
21.66513690165013,26.9166147908299,0,0,7990,8481,100,1,218
21.727908500798726,26.805337954384264,0,0,8006,8481,100,1,219
21.727908500798726,26.805337954384264,0,0,7990,8481,100,1,220
21.461686386252325,26.88211443392623,0,0,7990,8481,100,1,221
21.461686386252325,26.90825512988685,0,0,7987,8481,100,1,222
21.474598824241962,26.90825512988685,0,0,6986,8481,100,1,223
21.487877435869514,26.88211443392623,0,0,5431,8481,100,1,224
21.487877435869514,26.88211443392623,0,0,3863,8481,100,1,225
21.487877435869514,27.552547194014423,0,0,2371,8481,100,1,226
21.297262595459593,28.509036223177386,0,0,967,8481,100,1,227
21.297262595459593,28.509036223177386,0,0,38,8481,100,1,228
21.297262595459593,28.58901930171117,0,0,0,8481,100,1,229
21.412960874034795,28.4210195873005,0,0,0,8481,100,1,230
21.38945375902974,27.609937168251708,0,0,0,8481,100,1,231
21.412960874034795,27.028660474257567,0,0,0,8481,100,1,232
21.488380222541476,27.028660474257567,0,0,0,8481,100,1,233
21.488380222541476,27.139576068823214,0,0,0,8481,100,1,234
21.501521542725666,27.139576068823214,0,0,0,8481,100,1,235
21.56327896768057,27.02802805570825,0,0,0,8481,100,1,236
21.651966999107177,26.9166147908299,0,0,0,8481,100,1,237
21.668202893192948,26.895184210793307,0,0,0,8481,100,1,238
21.730983375608375,26.895184210793307,0,0,0,8481,100,1,239
21.730983375608375,26.88211443392623,0,0,0,8481,100,1,240
21.55041966453854,26.88211443392623,0,0,0,8481,100,1,241
21.55041966453854,26.90825512988685,0,0,0,8481,100,1,242
21.487877435869514,26.90825512988685,0,0,0,8481,100,1,243
21.576503003842657,26.856247479103587,0,0,0,8481,100,1,244
21.487877435869514,26.856247479103587,0,0,1,8481,100,1,245
21.487877435869514,27.5246831017139,0,0,439,8481,100,1,246
21.300276526426167,28.4210195873005,0,0,1340,8481,100,1,247
21.300276526426167,28.47383761934512,0,0,2432,8481,100,1,248
21.31366753087348,28.761224823558873,0,0,3619,8481,100,1,249
21.324409207528447,28.47383761934512,0,0,4881,8481,100,1,250
21.385926666917737,27.613844451840077,0,0,6154,8481,100,1,251
21.487877435869514,27.113954735810758,0,0,7455,8481,100,1,252
21.487877435869514,27.113954735810758,0,0,7990,8481,100,1,253
21.487877435869514,27.139576068823214,0,0,7990,8481,100,1,254
21.487877435869514,27.139576068823214,0,0,8006,8481,100,1,255
21.487877435869514,27.02802805570825,0,0,7990,8481,100,1,0
21.66513690165013,26.9166147908299,0,0,8006,8481,100,1,1
21.66513690165013,26.830655057145744,0,0,7990,8481,100,1,2
21.727908500798726,26.805337954384264,0,0,8006,8481,100,1,3
21.727908500798726,26.805337954384264,0,0,7990,8481,100,1,4
21.474598824241962,26.856247479103587,0,0,8006,8481,100,1,5
21.474598824241962,26.912063113332092,0,0,7990,8481,100,1,6
21.579556452156123,26.912063113332092,0,0,8006,8481,100,1,7
21.579556452156123,26.886547989471925,0,0,7990,8481,100,1,8
21.579556452156123,26.886547989471925,0,0,8006,8481,100,1,9
21.487877435869514,27.411771049481374,0,0,7990,8481,100,1,10
21.300276526426167,28.389762743023248,0,0,8006,8481,100,1,11
21.300276526426167,28.561987778005275,0,0,7990,8481,100,1,12
21.300276526426167,28.70836079314914,0,0,8006,8481,100,1,13
21.415991178308644,28.561987778005275,0,0,7990,8481,100,1,14
21.42702768147792,27.582422361401107,0,0,8006,8481,100,1,15
21.477637851351712,27.00259844379491,0,0,7990,8481,100,1,16
21.487877435869514,27.00259844379491,0,0,7997,8481,100,1,17
21.487877435869514,27.139576068823214,0,0,7990,8481,100,1,18
21.576503003842657,27.139576068823214,0,0,7049,8481,100,1,19
21.576503003842657,27.02802805570825,0,0,5464,8481,100,1,20
21.664629557323938,26.89074888558808,0,0,3854,8481,100,1,21
21.66513690165013,26.830655057145744,0,0,2315,8481,100,1,22
21.74066282198791,26.805337954384264,0,0,871,8481,100,1,23
21.74066282198791,26.805337954384264,0,0,16,8481,100,1,24
21.55041966453854,26.856247479103587,0,0,0,8481,100,1,25
21.55041966453854,26.88591871801092,0,0,0,8481,100,1,26
21.576503003842657,26.88591871801092,0,0,0,8481,100,1,27
21.576503003842657,26.856247479103587,0,0,0,8481,100,1,28
21.487877435869514,26.856247479103587,0,0,0,8481,100,1,29
21.487877435869514,27.411771049481374,0,0,0,8481,100,1,30
21.388953145383756,28.393780385416548,0,0,0,8481,100,1,31
21.327426980210095,28.6461419419185,0,0,0,8481,100,1,32
21.327426980210095,28.70836079314914,0,0,0,8481,100,1,33
21.327426980210095,28.6461419419185,0,0,0,8481,100,1,34
21.385425861009885,27.586325751168474,0,0,0,8481,100,1,35
21.490918342132446,27.092439294452014,0,0,0,8481,100,1,36
21.490918342132446,27.092439294452014,0,0,0,8481,100,1,37
21.490918342132446,27.143416788181714,0,0,0,8481,100,1,38
21.56327896768057,27.143416788181714,0,0,0,8481,100,1,39
21.56327896768057,27.02802805570825,0,0,0,8481,100,1,40
21.66513690165013,26.891378615666692,0,0,0,8481,100,1,41
21.66513690165013,26.830655057145744,0,0,6,8481,100,1,42
21.74066282198791,26.805337954384264,0,0,491,8481,100,1,43
21.74066282198791,26.805337954384264,0,0,1428,8481,100,1,44
21.55041966453854,26.856247479103587,0,0,2545,8481,100,1,45
21.55041966453854,26.907625004601712,0,0,3778,8481,100,1,46
21.575997735104785,26.907625004601712,0,0,5053,8481,100,1,47
21.575997735104785,26.88211443392623,0,0,6375,8481,100,1,48
21.487877435869514,26.88211443392623,0,0,7634,8481,100,1,49
21.4873742425249,27.383709272594604,0,0,7990,8481,100,1,50
21.296763865846657,28.41158882384469,0,0,8006,8481,100,1,51
21.296763865846657,28.619669058838937,0,0,7990,8481,100,1,52
21.310152661963322,28.672398920411187,0,0,8006,8481,100,1,53
21.41245943505217,28.672398920411187,0,0,7990,8481,100,1,54
21.474095941849846,27.554526402122065,0,0,8006,8481,100,1,55
21.4873742425249,27.02739512563518,0,0,7990,8481,100,1,56
21.4873742425249,27.02739512563518,0,0,8006,8481,100,1,57
21.487877435869514,27.139576068823214,0,0,7990,8481,100,1,58
21.50101802986957,27.139576068823214,0,0,8006,8481,100,1,59
21.56277400861717,27.00196610922093,0,0,7990,8481,100,1,60
21.664629557323938,26.915984469782014,0,0,8006,8481,100,1,61
21.664629557323938,26.89074888558808,0,0,7990,8481,100,1,62
21.74066282198791,26.805337954384264,0,0,8006,8481,100,1,63
21.74066282198791,26.805337954384264,0,0,7990,8481,100,1,64
21.5374213823592,26.855618571709968,0,0,8006,8481,100,1,65
21.5374213823592,26.88211443392623,0,0,7990,8481,100,1,66
21.575997735104785,26.88211443392623,0,0,8006,8481,100,1,67
21.575997735104785,26.88148492079202,0,0,7990,8481,100,1,68
21.575997735104785,26.88148492079202,0,0,8006,8481,100,1,69
21.474095941849846,27.298341367420274,0,0,7990,8481,100,1,70
21.296763865846657,28.41158882384469,0,0,7990,8481,100,1,71
21.296763865846657,28.567404371967974,0,0,7834,8481,100,1,72
21.310152661963322,28.756481766794764,0,0,6489,8481,100,1,73
21.41245943505217,28.756481766794764,0,0,4931,8481,100,1,74
21.474095941849846,27.469104368429296,0,0,3387,8481,100,1,75
21.575997735104785,27.02739512563518,0,0,1940,8481,100,1,76
21.575997735104785,27.02739512563518,0,0,604,8481,100,1,77
21.575997735104785,27.13894052656949,0,0,0,8481,100,1,78
21.56277400861717,27.13894052656949,0,0,0,8481,100,1,79
21.56277400861717,26.941494641003853,0,0,0,8481,100,1,80
21.651459963187776,26.915984469782014,0,0,0,8481,100,1,81
21.664629557323938,26.808503391522674,0,0,0,8481,100,1,82
21.743230172626337,26.804710239166745,0,0,0,8481,100,1,83
21.743230172626337,26.808503391522674,0,0,0,8481,100,1,84
21.5374213823592,26.855618571709968,0,0,0,8481,100,1,85
21.5374213823592,26.907625004601712,0,0,0,8481,100,1,86
21.56277400861717,26.907625004601712,0,0,0,8481,100,1,87
21.575997735104785,26.856247479103587,0,0,0,8481,100,1,88
21.56277400861717,26.856247479103587,0,0,0,8481,100,1,89
21.4873742425249,27.185676758199794,0,0,0,8481,100,1,90
21.296763865846657,28.41158882384469,0,0,0,8481,100,1,91
21.296763865846657,28.53574620738812,0,0,0,8481,100,1,92
21.310152661963322,28.672398920411187,0,0,0,8481,100,1,93
21.41245943505217,28.672398920411187,0,0,52,8481,100,1,94
21.385425861009885,27.581776448774235,0,0,660,8481,100,1,95
21.4873742425249,27.02739512563518,0,0,1600,8481,100,1,96
21.4873742425249,27.02739512563518,0,0,2687,8481,100,1,97
21.4873742425249,27.13894052656949,0,0,3875,8481,100,1,98
21.4873742425249,27.13894052656949,0,0,5099,8481,100,1,99
21.56277400861717,26.941494641003853,0,0,6370,8481,100,1,100
21.664629557323938,26.915984469782014,0,0,7599,8481,100,1,101
21.664629557323938,26.804710239166745,0,0,7990,8481,100,1,102
21.740153709030057,26.804710239166745,0,0,8006,8481,100,1,103
21.740153709030057,26.804710239166745,0,0,7990,8481,100,1,104
21.5374213823592,26.804710239166745,0,0,8006,8481,100,1,105
21.5374213823592,26.907625004601712,0,0,7990,8481,100,1,106
21.474095941849846,26.907625004601712,0,0,8006,8481,100,1,107
21.575997735104785,26.88148492079202,0,0,7990,8481,100,1,108
21.4873742425249,26.88148492079202,0,0,8006,8481,100,1,109
21.4873742425249,27.158620957335348,0,0,7990,8481,100,1,110
21.385425861009885,28.36800536262955,0,0,8006,8481,100,1,111
21.326927402858615,28.3811723573157,0,0,7990,8481,100,1,112
21.326927402858615,28.672398920411187,0,0,8006,8481,100,1,113
21.326927402858615,28.672398920411187,0,0,7990,8481,100,1,114
21.3724601555858,27.49643907178849,0,0,8006,8481,100,1,115
21.41245943505217,27.00196610922093,0,0,7990,8481,100,1,116
21.4873742425249,27.00196610922093,0,0,8006,8481,100,1,117
21.4873742425249,27.13894052656949,0,0,7990,8481,100,1,118
21.4873742425249,27.13894052656949,0,0,8006,8481,100,1,119
21.4873742425249,26.941494641003853,0,0,7990,8481,100,1,120
21.664629557323938,26.915984469782014,0,0,8006,8481,100,1,121
21.664629557323938,26.830026749063826,0,0,7990,8481,100,1,122
21.740153709030057,26.830026749063826,0,0,7990,8481,100,1,123
21.740153709030057,26.830026749063826,0,0,7481,8481,100,1,124
21.5374213823592,26.855618571709968,0,0,6018,8481,100,1,125
21.5374213823592,26.911432720494474,0,0,4571,8481,100,1,126
21.56582537109419,26.911432720494474,0,0,3167,8481,100,1,127
21.575997735104785,26.859418928137856,0,0,1874,8481,100,1,128
21.575997735104785,26.859418928137856,0,0,696,8481,100,1,129
21.474095941849846,27.158620957335348,0,0,12,8481,100,1,130
21.296763865846657,28.38518859587343,0,0,0,8481,100,1,131
21.296763865846657,28.45185820559653,0,0,0,8481,100,1,132
21.296763865846657,28.672398920411187,0,0,0,8481,100,1,133
21.326927402858615,28.672398920411187,0,0,0,8481,100,1,134
21.385425861009885,27.554526402122065,0,0,0,8481,100,1,135
21.41245943505217,27.02739512563518,0,0,0,8481,100,1,136
21.4873742425249,27.02739512563518,0,0,0,8481,100,1,137
21.4873742425249,27.13894052656949,0,0,0,8481,100,1,138
21.4873742425249,27.13894052656949,0,0,0,8481,100,1,139
21.4873742425249,27.02739512563518,0,0,0,8481,100,1,140
21.664629557323938,26.830026749063826,0,0,0,8481,100,1,141
21.664629557323938,26.830026749063826,0,0,0,8481,100,1,142
21.740153709030057,26.830026749063826,0,0,0,8481,100,1,143
21.740153709030057,26.830026749063826,0,0,95,8481,100,1,144
21.46118380623781,26.855618571709968,0,0,705,8481,100,1,145
21.46118380623781,26.907625004601712,0,0,1560,8481,100,1,146
21.4873742425249,26.907625004601712,0,0,2547,8481,100,1,147
21.575997735104785,26.855618571709968,0,0,3631,8481,100,1,148
21.4873742425249,26.855618571709968,0,0,4764,8481,100,1,149
21.4873742425249,27.131834308999597,0,0,5963,8481,100,1,150
21.385425861009885,28.3811723573157,0,0,7170,8481,100,1,151
21.323909842208494,28.38909792446637,0,0,7989,8481,100,1,152
21.323909842208494,28.67645637063336,0,0,7990,8481,100,1,153
21.323909842208494,28.67645637063336,0,0,7990,8481,100,1,154
21.385425861009885,27.469104368429296,0,0,8006,8481,100,1,155
21.426525913085197,27.02802805570825,0,0,7990,8481,100,1,156
21.487877435869514,27.02802805570825,0,0,8006,8481,100,1,157
21.487877435869514,27.13894052656949,0,0,7990,8481,100,1,158
21.4873742425249,27.13894052656949,0,0,8006,8481,100,1,159
21.4873742425249,27.02739512563518,0,0,7990,8481,100,1,160
21.664629557323938,26.941494641003853,0,0,8006,8481,100,1,161
21.667695333447334,26.91979336862826,0,0,7990,8481,100,1,162
21.740153709030057,26.91979336862826,0,0,8006,8481,100,1,163
21.740153709030057,26.91979336862826,0,0,7990,8481,100,1,164
21.549915006608455,26.967278620002332,0,0,8006,8481,100,1,165
21.549915006608455,27.01966485757613,0,0,7990,8481,100,1,166
21.4873742425249,27.01966485757613,0,0,8006,8481,100,1,167
21.575997735104785,26.88148492079202,0,0,7990,8481,100,1,168
21.4873742425249,26.88148492079202,0,0,8006,8481,100,1,169
21.4873742425249,27.131834308999597,0,0,7990,8481,100,1,170
21.296763865846657,28.3811723573157,0,0,8006,8481,100,1,171
21.296763865846657,28.42035403678505,0,0,7990,8481,100,1,172
21.323909842208494,28.756481766794764,0,0,8006,8481,100,1,173
21.323909842208494,28.756481766794764,0,0,7990,8481,100,1,174
21.385425861009885,27.609290611295602,0,0,7615,8481,100,1,175
21.39875918307651,27.11331979354576,0,0,6151,8481,100,1,176
21.39875918307651,27.11331979354576,0,0,4584,8481,100,1,177
21.4873742425249,27.13894052656949,0,0,3088,8481,100,1,178
21.4873742425249,27.13894052656949,0,0,1683,8481,100,1,179
21.4873742425249,27.13894052656949,0,0,433,8481,100,1,180
21.664629557323938,26.941494641003853,0,0,0,8481,100,1,181
21.664629557323938,26.915984469782014,0,0,0,8481,100,1,182
21.727399686515763,26.915984469782014,0,0,0,8481,100,1,183
21.727399686515763,26.915984469782014,0,0,0,8481,100,1,184
21.46118380623781,26.967278620002332,0,0,0,8481,100,1,185
21.46118380623781,26.99333562215558,0,0,0,8481,100,1,186
21.575997735104785,26.99333562215558,0,0,0,8481,100,1,187
21.575997735104785,26.88148492079202,0,0,0,8481,100,1,188
21.575997735104785,26.88148492079202,0,0,0,8481,100,1,189
21.4873742425249,27.10531761115711,0,0,0,8481,100,1,190
21.296264733256812,28.3811723573157,0,0,0,8481,100,1,191
21.296264733256812,28.472503505808167,0,0,0,8481,100,1,192
21.310152661963322,28.672398920411187,0,0,0,8481,100,1,193
21.41245943505217,28.672398920411187,0,0,0,8481,100,1,194
21.385425861009885,27.554526402122065,0,0,0,8481,100,1,195
21.41245943505217,27.11331979354576,0,0,0,8481,100,1,196
21.4873742425249,27.11331979354576,0,0,368,8481,100,1,197
21.4873742425249,27.164832867996342,0,0,1183,8481,100,1,198
21.50101802986957,27.164832867996342,0,0,2171,8481,100,1,199
21.575997735104785,27.02739512563518,0,0,3273,8481,100,1,200
21.66412180306009,26.94086321277,0,0,4423,8481,100,1,201
21.664629557323938,26.915984469782014,0,0,5628,8481,100,1,202
21.727399686515763,26.915984469782014,0,0,6837,8481,100,1,203
21.727399686515763,26.855618571709968,0,0,7890,8481,100,1,204
21.549915006608455,26.855618571709968,0,0,7990,8481,100,1,205
21.549915006608455,26.907625004601712,0,0,7990,8481,100,1,206
21.575997735104785,26.907625004601712,0,0,8006,8481,100,1,207
21.575997735104785,26.88148492079202,0,0,7990,8481,100,1,208
21.4873742425249,26.88148492079202,0,0,8006,8481,100,1,209
21.486870642596656,27.104682343401727,0,0,7990,8481,100,1,210
21.296264733256812,28.3811723573157,0,0,8006,8481,100,1,211
21.296264733256812,28.38843256873158,0,0,7990,8481,100,1,212
21.323410073397973,28.671726924946505,0,0,8006,8481,100,1,213
21.41245943505217,28.671726924946505,0,0,7990,8481,100,1,214
21.384924650447466,27.469104368429296,0,0,8006,8481,100,1,215
21.4873742425249,27.11331979354576,0,0,7990,8481,100,1,216
21.4873742425249,27.11331979354576,0,0,8006,8481,100,1,217
21.4873742425249,27.164832867996342,0,0,7990,8481,100,1,218
21.500514110171668,27.164832867996342,0,0,8006,8481,100,1,219
21.575997735104785,27.02739512563518,0,0,7990,8481,100,1,220
21.66412180306009,26.91535363943045,0,0,8006,8481,100,1,221
21.66412180306009,26.91535363943045,0,0,7990,8481,100,1,222
21.739644184705476,26.91535363943045,0,0,8006,8481,100,1,223
21.739644184705476,26.854989156154897,0,0,7990,8481,100,1,224
21.54940994091134,26.854989156154897,0,0,7990,8481,100,1,225
21.54940994091134,26.93340677266904,0,0,7894,8481,100,1,226
21.575492058106352,26.93340677266904,0,0,6633,8481,100,1,227
21.575492058106352,26.88148492079202,0,0,5085,8481,100,1,228
21.575492058106352,26.88148492079202,0,0,3541,8481,100,1,229
21.486870642596656,26.992702978923838,0,0,2090,8481,100,1,230
21.296264733256812,28.265907915604377,0,0,740,8481,100,1,231
21.296264733256812,28.472503505808167,0,0,6,8481,100,1,232
21.309653215580052,28.671726924946505,0,0,0,8481,100,1,233
21.41195759090345,28.671726924946505,0,0,0,8481,100,1,234
21.384924650447466,27.442035222312658,0,0,0,8481,100,1,235
21.41245943505217,27.11331979354576,0,0,0,8481,100,1,236
21.50101802986957,27.11331979354576,0,0,0,8481,100,1,237
21.50101802986957,27.164832867996342,0,0,0,8481,100,1,238
21.575492058106352,27.164832867996342,0,0,0,8481,100,1,239
21.575492058106352,27.05246319018147,0,0,0,8481,100,1,240
21.66412180306009,26.91535363943045,0,0,0,8481,100,1,241
21.66412180306009,26.91535363943045,0,0,0,8481,100,1,242
21.739644184705476,26.829397933304712,0,0,0,8481,100,1,243
21.739644184705476,26.854989156154897,0,0,0,8481,100,1,244
21.54940994091134,26.854989156154897,0,0,0,8481,100,1,245
21.54940994091134,26.93340677266904,0,0,0,8481,100,1,246
21.575492058106352,26.93340677266904,0,0,0,8481,100,1,247
21.575492058106352,26.855618571709968,0,0,0,8481,100,1,248
21.575492058106352,26.855618571709968,0,0,8,8481,100,1,249
21.4873742425249,26.992702978923838,0,0,464,8481,100,1,250
21.296264733256812,28.265907915604377,0,0,1327,8481,100,1,251
21.296264733256812,28.441588649691006,0,0,2366,8481,100,1,252
21.323410073397973,28.671726924946505,0,0,3495,8481,100,1,253
21.323410073397973,28.671726924946505,0,0,4696,8481,100,1,254
21.384924650447466,27.46846057459796,0,0,5904,8481,100,1,255
21.41195759090345,27.112684338243106,0,0,7141,8481,100,1,0
21.486870642596656,27.112684338243106,0,0,7964,8481,100,1,1
21.500514110171668,27.16419620538095,0,0,7990,8481,100,1,2
21.55921834504058,27.16419620538095,0,0,8006,8481,100,1,3
21.55921834504058,26.94086321277,0,0,7990,8481,100,1,4
21.66412180306009,26.937052035838324,0,0,8006,8481,100,1,5
21.66412180306009,26.91535363943045,0,0,7990,8481,100,1,6
21.739644184705476,26.829397933304712,0,0,8006,8481,100,1,7
21.739644184705476,26.829397933304712,0,0,7990,8481,100,1,8
21.54940994091134,26.829397933304712,0,0,8006,8481,100,1,9
21.54940994091134,26.93340677266904,0,0,7990,8481,100,1,10
21.56226864154342,26.93340677266904,0,0,8006,8481,100,1,11
21.56226864154342,26.7950883641044,0,0,7990,8481,100,1,12
21.486870642596656,26.7950883641044,0,0,8006,8481,100,1,13
21.486870642596656,26.992702978923838,0,0,7990,8481,100,1,14
21.296264733256812,28.265907915604377,0,0,8006,8481,100,1,15
21.296264733256812,28.441588649691006,0,0,7990,8481,100,1,16
21.309653215580052,28.70295372692676,0,0,8006,8481,100,1,17
21.41195759090345,28.70295372692676,0,0,7990,8481,100,1,18
21.384924650447466,27.383067480169473,0,0,8006,8481,100,1,19
21.483831012237367,27.134465362924086,0,0,7990,8481,100,1,20
21.483831012237367,27.134465362924086,0,0,8006,8481,100,1,21
21.500514110171668,27.16419620538095,0,0,7990,8481,100,1,22
21.56226864154342,27.16419620538095,0,0,7794,8481,100,1,23
21.56226864154342,26.966646587468965,0,0,6489,8481,100,1,24
21.66412180306009,26.94086321277,0,0,4964,8481,100,1,25
21.66412180306009,26.91535363943045,0,0,3487,8481,100,1,26
21.739644184705476,26.91535363943045,0,0,2067,8481,100,1,27
21.739644184705476,26.880854899006927,0,0,761,8481,100,1,28
21.536916609475345,26.880854899006927,0,0,10,8481,100,1,29
21.536916609475345,26.93340677266904,0,0,0,8481,100,1,30
21.56226864154342,26.93340677266904,0,0,0,8481,100,1,31
21.56226864154342,26.854989156154897,0,0,0,8481,100,1,32
21.486870642596656,26.854989156154897,0,0,0,8481,100,1,33
21.470051419892595,26.988251583278288,0,0,0,8481,100,1,34
21.296264733256812,28.15141291654803,0,0,0,8481,100,1,35
21.296264733256812,28.441588649691006,0,0,0,8481,100,1,36
21.323410073397973,28.671726924946505,0,0,0,8481,100,1,37
21.323410073397973,28.671726924946505,0,0,0,8481,100,1,38
21.384924650447466,27.383067480169473,0,0,0,8481,100,1,39
21.41195759090345,27.112684338243106,0,0,0,8481,100,1,40
21.486870642596656,27.112684338243106,0,0,0,8481,100,1,41
21.500514110171668,27.16419620538095,0,0,0,8481,100,1,42
21.500514110171668,27.16419620538095,0,0,0,8481,100,1,43
21.500514110171668,27.05246319018147,0,0,0,8481,100,1,44
21.574985972936798,26.91535363943045,0,0,0,8481,100,1,45
21.638146518356457,26.91535363943045,0,0,282,8481,100,1,46
21.638146518356457,26.889487899063823,0,0,1058,8481,100,1,47
21.638146518356457,26.880854899006927,0,0,2022,8481,100,1,48
21.44813580490777,26.880854899006927,0,0,3091,8481,100,1,49
21.44813580490777,27.019031597265688,0,0,4244,8481,100,1,50
21.486870642596656,27.019031597265688,0,0,5425,8481,100,1,51
21.486870642596656,26.854989156154897,0,0,6648,8481,100,1,52
21.486870642596656,26.854989156154897,0,0,7758,8481,100,1,53
21.486870642596656,26.992702978923838,0,0,7990,8481,100,1,54
21.29576519777834,27.863982157822413,0,0,8006,8481,100,1,55
21.29576519777834,28.46421609728077,0,0,7990,8481,100,1,56
21.309153366054872,28.671054387062167,0,0,8006,8481,100,1,57
21.322909901185284,28.671054387062167,0,0,7990,8481,100,1,58
21.323410073397973,27.32902846896398,0,0,8006,8481,100,1,59
21.384924650447466,27.13830447079332,0,0,7990,8481,100,1,60
21.49696843729252,27.13830447079332,0,0,8006,8481,100,1,61
21.500514110171668,27.13830447079332,0,0,7990,8481,100,1,62
21.49696843729252,27.13830447079332,0,0,8006,8481,100,1,63
21.500514110171668,27.026127731365715,0,0,7990,8481,100,1,64
21.6636136389484,26.94086321277,0,0,8006,8481,100,1,65
21.6636136389484,26.94086321277,0,0,7990,8481,100,1,66
21.6636136389484,26.914722299886783,0,0,8006,8481,100,1,67
21.650952517579913,26.880854899006927,0,0,7990,8481,100,1,68
21.54940994091134,26.880854899006927,0,0,8006,8481,100,1,69
21.54940994091134,27.01520936227913,0,0,7990,8481,100,1,70
21.486870642596656,27.01520936227913,0,0,8006,8481,100,1,71
21.57243989095892,26.880854899006927,0,0,7990,8481,100,1,72
21.486870642596656,26.880854899006927,0,0,8006,8481,100,1,73
21.486870642596656,26.992702978923838,0,0,7990,8481,100,1,74
21.296264733256812,27.863982157822413,0,0,7648,8481,100,1,75
21.296264733256812,28.495209473671444,0,0,6214,8481,100,1,76
21.323410073397973,28.724918152866596,0,0,4660,8481,100,1,77
21.323410073397973,28.724918152866596,0,0,3166,8481,100,1,78
21.323410073397973,27.32902846896398,0,0,1747,8481,100,1,79
21.38189944183147,27.13830447079332,0,0,466,8481,100,1,80
21.398257660020807,27.13830447079332,0,0,0,8481,100,1,81
21.500514110171668,27.16419620538095,0,0,0,8481,100,1,82
21.500514110171668,27.16419620538095,0,0,0,8481,100,1,83
21.500514110171668,27.05246319018147,0,0,0,8481,100,1,84
21.66412180306009,26.94086321277,0,0,0,8481,100,1,85
21.66412180306009,26.91535363943045,0,0,0,8481,100,1,86
21.66412180306009,26.8901186466833,0,0,0,8481,100,1,87
21.638146518356457,26.880854899006927,0,0,0,8481,100,1,88
21.460680820135234,26.880854899006927,0,0,0,8481,100,1,89
21.460680820135234,27.019031597265688,0,0,0,8481,100,1,90
21.486870642596656,27.019031597265688,0,0,0,8481,100,1,91
21.486870642596656,26.854989156154897,0,0,0,8481,100,1,92
21.486870642596656,26.854989156154897,0,0,0,8481,100,1,93
21.486870642596656,26.992702978923838,0,0,0,8481,100,1,94
21.29576519777834,27.607770508326308,0,0,0,8481,100,1,95
21.29576519777834,28.494541076265758,0,0,5,8481,100,1,96
21.323410073397973,28.671726924946505,0,0,460,8481,100,1,97
21.33753459420708,28.671726924946505,0,0,1350,8481,100,1,98
21.33753459420708,27.302410257895467,0,0,2416,8481,100,1,99
21.384423035319127,27.13382906384932,0,0,3597,8481,100,1,100
21.49696843729252,27.13382906384932,0,0,4824,8481,100,1,101
21.500514110171668,27.16419620538095,0,0,6102,8481,100,1,102
21.500514110171668,27.16419620538095,0,0,7374,8481,100,1,103
21.500514110171668,27.02676168415032,0,0,7990,8481,100,1,104
21.66412180306009,26.91535363943045,0,0,8006,8481,100,1,105
21.66412180306009,26.914722299886783,0,0,7990,8481,100,1,106
21.67714523117952,26.914722299886783,0,0,8006,8481,100,1,107
21.65044466237335,26.914722299886783,0,0,7990,8481,100,1,108
21.54940994091134,26.91535363943045,0,0,8006,8481,100,1,109
21.54940994091134,27.019031597265688,0,0,7990,8481,100,1,110
21.57243989095892,27.019031597265688,0,0,8006,8481,100,1,111
21.57243989095892,26.854359232549736,0,0,7990,8481,100,1,112
21.486870642596656,26.854359232549736,0,0,8006,8481,100,1,113
21.486870642596656,26.966646587468965,0,0,7990,8481,100,1,114
21.29576519777834,27.607770508326308,0,0,8006,8481,100,1,115
21.29576519777834,28.46421609728077,0,0,7990,8481,100,1,116
21.322909901185284,28.650562993630196,0,0,8006,8481,100,1,117
21.323410073397973,28.650562993630196,0,0,7990,8481,100,1,118
21.384924650447466,27.414589888819624,0,0,8006,8481,100,1,119
21.41195759090345,27.112684338243106,0,0,7990,8481,100,1,120
21.486870642596656,27.112684338243106,0,0,8006,8481,100,1,121
21.500009783721097,27.163559028865787,0,0,7990,8481,100,1,122
21.500009783721097,27.163559028865787,0,0,8006,8481,100,1,123
21.500009783721097,27.02676168415032,0,0,7990,8481,100,1,124
21.6636136389484,26.940231274861457,0,0,8006,8481,100,1,125
21.67765371270222,26.91535363943045,0,0,7990,8481,100,1,126
21.739644184705476,26.91535363943045,0,0,7536,8481,100,1,127
21.739644184705476,26.91535363943045,0,0,6082,8481,100,1,128
21.548904467536527,26.91535363943045,0,0,4564,8481,100,1,129
21.548904467536527,27.019031597265688,0,0,3116,8481,100,1,130
21.575492058106352,27.019031597265688,0,0,1747,8481,100,1,131
21.575492058106352,26.854989156154897,0,0,511,8481,100,1,132
21.486870642596656,26.854989156154897,0,0,0,8481,100,1,133
21.486870642596656,26.966646587468965,0,0,0,8481,100,1,134
21.29576519777834,27.494333610471088,0,0,0,8481,100,1,135
21.29576519777834,28.46421609728077,0,0,0,8481,100,1,136
21.322909901185284,28.640074783089275,0,0,0,8481,100,1,137
21.33753459420708,28.640074783089275,0,0,0,8481,100,1,138
21.384924650447466,27.302410257895467,0,0,0,8481,100,1,139
21.426023739260202,27.13830447079332,0,0,0,8481,100,1,140
21.500514110171668,27.13830447079332,0,0,0,8481,100,1,141
21.500514110171668,27.16419620538095,0,0,0,8481,100,1,142
21.56226864154342,27.16419620538095,0,0,0,8481,100,1,143
21.56226864154342,27.02676168415032,0,0,0,8481,100,1,144
21.575492058106352,26.94086321277,0,0,0,8481,100,1,145
21.67714523117952,26.914722299886783,0,0,0,8481,100,1,146
21.7391342491043,26.914722299886783,0,0,0,8481,100,1,147
21.7391342491043,26.854989156154897,0,0,0,8481,100,1,148
21.54940994091134,26.854989156154897,0,0,312,8481,100,1,149
21.54940994091134,27.019031597265688,0,0,1122,8481,100,1,150
21.574985972936798,27.019031597265688,0,0,2108,8481,100,1,151
21.574985972936798,26.854989156154897,0,0,3213,8481,100,1,152
21.486870642596656,26.854989156154897,0,0,4376,8481,100,1,153
21.486870642596656,26.966646587468965,0,0,5609,8481,100,1,154
21.29576519777834,27.465476309343693,0,0,6852,8481,100,1,155
21.29576519777834,28.46421609728077,0,0,7906,8481,100,1,156
21.322909901185284,28.53440808208784,0,0,7990,8481,100,1,157
21.411455341677396,28.53440808208784,0,0,7990,8481,100,1,158
21.41195759090345,27.190358766115434,0,0,8006,8481,100,1,159
21.473592653125337,27.112684338243106,0,0,7990,8481,100,1,160
21.500514110171668,27.112684338243106,0,0,8006,8481,100,1,161
21.500514110171668,27.137667901607195,0,0,7990,8481,100,1,162
21.57193402053327,27.137667901607195,0,0,8006,8481,100,1,163
21.57193402053327,27.0223046718471,0,0,7990,8481,100,1,164
21.6636136389484,26.940231274861457,0,0,8006,8481,100,1,165
21.67714523117952,26.914722299886783,0,0,7990,8481,100,1,166
21.7391342491043,26.914722299886783,0,0,8006,8481,100,1,167
21.7391342491043,26.829397933304712,0,0,7990,8481,100,1,168
21.548904467536527,26.829397933304712,0,0,8006,8481,100,1,169
21.548904467536527,27.019031597265688,0,0,7990,8481,100,1,170
21.574985972936798,27.019031597265688,0,0,8006,8481,100,1,171
21.574985972936798,26.768511839389053,0,0,7990,8481,100,1,172
21.486366636173855,26.768511839389053,0,0,8006,8481,100,1,173
21.486366636173855,26.99206982503668,0,0,7990,8481,100,1,174
21.29576519777834,27.352977397868134,0,0,8006,8481,100,1,175
21.29576519777834,28.37984148043914,0,0,7990,8481,100,1,176
21.322909901185284,28.45052401405207,0,0,8006,8481,100,1,177
21.411455341677396,28.45052401405207,0,0,7990,8481,100,1,178
21.500009783721097,27.21615296177653,0,0,7442,8481,100,1,179
21.500009783721097,27.112048370015202,0,0,5917,8481,100,1,180
21.500009783721097,27.112048370015202,0,0,4352,8481,100,1,181
21.500009783721097,27.137667901607195,0,0,2865,8481,100,1,182
21.56176286654871,27.137667901607195,0,0,1466,8481,100,1,183
21.56176286654871,27.026127731365715,0,0,266,8481,100,1,184
21.6636136389484,26.914722299886783,0,0,0,8481,100,1,185
21.6636136389484,26.914722299886783,0,0,0,8481,100,1,186
21.7391342491043,26.828768609979633,0,0,0,8481,100,1,187
21.7391342491043,26.828768609979633,0,0,0,8481,100,1,188
21.548904467536527,26.828768609979633,0,0,0,8481,100,1,189
21.548904467536527,27.018397825801735,0,0,0,8481,100,1,190
21.574985972936798,27.018397825801735,0,0,0,8481,100,1,191
21.574985972936798,26.768511839389053,0,0,0,8481,100,1,192
21.486366636173855,26.768511839389053,0,0,0,8481,100,1,193
21.486366636173855,26.88022436868239,0,0,0,8481,100,1,194
21.29576519777834,27.297061267682427,0,0,0,8481,100,1,195
21.29576519777834,28.180844714315736,0,0,0,8481,100,1,196
21.322909901185284,28.366675103192204,0,0,0,8481,100,1,197
21.322909901185284,28.366675103192204,0,0,0,8481,100,1,198
21.384423035319127,27.216791371989338,0,0,0,8481,100,1,199
21.41195759090345,27.137667901607195,0,0,0,8481,100,1,200
21.483327219676408,27.137667901607195,0,0,74,8481,100,1,201
21.486366636173855,27.137667901607195,0,0,717,8481,100,1,202
21.49696843729252,27.13382906384932,0,0,1665,8481,100,1,203
21.558712784658162,27.0223046718471,0,0,2784,8481,100,1,204
21.67714523117952,26.914722299886783,0,0,3995,8481,100,1,205
21.67714523117952,26.914722299886783,0,0,5279,8481,100,1,206
21.739644184705476,26.828768609979633,0,0,6575,8481,100,1,207
21.739644184705476,26.828768609979633,0,0,7790,8481,100,1,208
21.536411429150156,26.828768609979633,0,0,7990,8481,100,1,209
21.536411429150156,27.019031597265688,0,0,7990,8481,100,1,210
21.574985972936798,27.019031597265688,0,0,8006,8481,100,1,211
21.574985972936798,26.794459845561164,0,0,7990,8481,100,1,212
21.486366636173855,26.794459845561164,0,0,8006,8481,100,1,213
21.486366636173855,26.99206982503668,0,0,7990,8481,100,1,214
21.29576519777834,27.157984440308606,0,0,8006,8481,100,1,215
21.29576519777834,28.180844714315736,0,0,7990,8481,100,1,216
21.322909901185284,28.45052401405207,0,0,8006,8481,100,1,217
21.322909901185284,28.45052401405207,0,0,7990,8481,100,1,218
21.40842652197503,27.10021248111888,0,0,8006,8481,100,1,219
21.473088958157476,27.10021248111888,0,0,7990,8481,100,1,220
21.483327219676408,27.137667901607195,0,0,8006,8481,100,1,221
21.486366636173855,27.163559028865787,0,0,7990,8481,100,1,222
21.483327219676408,27.163559028865787,0,0,8006,8481,100,1,223
21.588573116545643,27.048001939415276,0,0,7990,8481,100,1,224
21.6636136389484,26.914722299886783,0,0,8006,8481,100,1,225
21.6636136389484,26.914722299886783,0,0,7990,8481,100,1,226
21.674078827540928,26.914722299886783,0,0,8006,8481,100,1,227
21.65044466237335,26.914722299886783,0,0,7990,8481,100,1,228
21.548904467536527,26.914722299886783,0,0,8006,8481,100,1,229
21.483327219676408,27.014575859739395,0,0,7990,8481,100,1,230
21.483327219676408,27.014575859739395,0,0,7940,8481,100,1,231
21.486366636173855,26.794459845561164,0,0,6841,8481,100,1,232
21.486366636173855,26.794459845561164,0,0,5261,8481,100,1,233
21.483327219676408,26.988251583278288,0,0,3722,8481,100,1,234
21.29576519777834,27.1305620172688,0,0,2239,8481,100,1,235
21.29576519777834,28.066294347573226,0,0,872,8481,100,1,236
21.322909901185284,28.366675103192204,0,0,22,8481,100,1,237
21.322909901185284,28.366675103192204,0,0,0,8481,100,1,238
21.322909901185284,27.21615296177653,0,0,0,8481,100,1,239
21.39775573214695,27.108213156342693,0,0,0,8481,100,1,240
21.49696843729252,27.108213156342693,0,0,0,8481,100,1,241
21.49696843729252,27.15971652860319,0,0,0,8481,100,1,242
21.49696843729252,27.15971652860319,0,0,0,8481,100,1,243
21.5109743775501,27.026127731365715,0,0,0,8481,100,1,244
21.57193402053327,26.91091499954757,0,0,0,8481,100,1,245
21.64738203574139,26.91091499954757,0,0,0,8481,100,1,246
21.673570151928885,26.910283419019184,0,0,0,8481,100,1,247
21.64738203574139,26.854359232549736,0,0,0,8481,100,1,248
21.548904467536527,26.854359232549736,0,0,0,8481,100,1,249
21.486366636173855,27.018397825801735,0,0,0,8481,100,1,250
21.486366636173855,27.018397825801735,0,0,0,8481,100,1,251
21.500009783721097,26.88022436868239,0,0,0,8481,100,1,252
21.500009783721097,26.88022436868239,0,0,33,8481,100,1,253
21.381398039550294,26.988251583278288,0,0,614,8481,100,1,254
21.381398039550294,27.12672418469447,0,0,1576,8481,100,1,255
21.322909901185284,28.032399851961564,0,0,2723,8481,100,1,0
21.322909901185284,28.38776667593659,0,0,3954,8481,100,1,1
21.319893606935786,28.38776667593659,0,0,5253,8481,100,1,2
21.319893606935786,27.271562498990757,0,0,6560,8481,100,1,3
21.483327219676408,27.13382906384932,0,0,7783,8481,100,1,4
21.483327219676408,27.13382906384932,0,0,7990,8481,100,1,5
21.483327219676408,27.13382906384932,0,0,7990,8481,100,1,6
21.483327219676408,27.13382906384932,0,0,8006,8481,100,1,7
21.483327219676408,27.0223046718471,0,0,7990,8481,100,1,8
21.57193402053327,26.91091499954757,0,0,8006,8481,100,1,9
21.634578148369023,26.91091499954757,0,0,7990,8481,100,1,10
21.735548946383304,26.82497346846967,0,0,8006,8481,100,1,11
21.660549149460557,26.8505604710438,0,0,7990,8481,100,1,12
21.660549149460557,26.8505604710438,0,0,8006,8481,100,1,13
21.368434776141946,27.014575859739395,0,0,7990,8481,100,1,14
21.355839729455365,27.014575859739395,0,0,8006,8481,100,1,15
21.27009672500945,26.88022436868239,0,0,7990,8481,100,1,16
21.27009672500945,26.88022436868239,0,0,8006,8481,100,1,17
21.27009672500945,26.962199488810914,0,0,7990,8481,100,1,18
21.384423035319127,27.1305620172688,0,0,8006,8481,100,1,19
21.384423035319127,28.062324148260014,0,0,7990,8481,100,1,20
21.322909901185284,28.38308485485117,0,0,8006,8481,100,1,21
21.322909901185284,28.38308485485117,0,0,7990,8481,100,1,22
21.397253399543704,27.275420822988856,0,0,8006,8481,100,1,23
21.425521160091773,27.13382906384932,0,0,7990,8481,100,1,24
21.49696843729252,27.13382906384932,0,0,8006,8481,100,1,25
21.5109743775501,27.15907910887532,0,0,7990,8481,100,1,26
21.5109743775501,27.15907910887532,0,0,7884,8481,100,1,27
21.482823020872427,27.021670477080296,0,0,6668,8481,100,1,28
21.482823020872427,26.910283419019184,0,0,5105,8481,100,1,29
21.64993639765789,26.910283419019184,0,0,3592,8481,100,1,30
21.660040791380684,26.82434390492947,0,0,2141,8481,100,1,31
21.660040791380684,26.849930306994384,0,0,812,8481,100,1,32
21.660040791380684,26.849930306994384,0,0,16,8481,100,1,33
21.571427742189073,26.98761818771387,0,0,0,8481,100,1,34
21.367933273784008,26.98761818771387,0,0,0,8481,100,1,35
21.282746091532548,26.88022436868239,0,0,0,8481,100,1,36
21.282746091532548,26.88022436868239,0,0,0,8481,100,1,37
21.380896232953546,26.961566704671103,0,0,0,8481,100,1,38
21.394226730901067,27.073336062725435,0,0,0,8481,100,1,39
21.394226730901067,27.773993514147843,0,0,0,8481,100,1,40
21.319393243805457,28.436230922453525,0,0,0,8481,100,1,41
21.319393243805457,28.436230922453525,0,0,0,8481,100,1,42
21.394226730901067,27.162921338563535,0,0,0,8481,100,1,43
21.425018175668782,27.108213156342693,0,0,0,8481,100,1,44
21.5109743775501,27.108213156342693,0,0,0,8481,100,1,45
21.602523610479683,27.163559028865787,0,0,0,8481,100,1,46
21.602523610479683,27.163559028865787,0,0,0,8481,100,1,47
21.585012644953252,27.021670477080296,0,0,0,8481,100,1,48
21.585012644953252,26.914722299886783,0,0,14,8481,100,1,49
21.6636136389484,26.914722299886783,0,0,506,8481,100,1,50
21.735548946383304,26.910283419019184,0,0,1392,8481,100,1,51
21.74866206665364,26.8505604710438,0,0,2454,8481,100,1,52
21.735548946383304,26.8505604710438,0,0,3610,8481,100,1,53
21.482823020872427,26.98761818771387,0,0,4841,8481,100,1,54
21.482823020872427,26.98761818771387,0,0,6078,8481,100,1,55
21.482823020872427,26.875791177348017,0,0,7352,8481,100,1,56
21.482823020872427,26.875791177348017,0,0,7989,8481,100,1,57
21.486366636173855,26.965380992026656,0,0,7990,8481,100,1,58
21.499505050607038,27.077801839306073,0,0,8006,8481,100,1,59
21.486366636173855,27.607122927117906,0,0,7990,8481,100,1,60
21.32240932565888,28.4402538324437,0,0,8006,8481,100,1,61
21.32240932565888,28.4402538324437,0,0,7990,8481,100,1,62
21.322909901185284,27.163559028865787,0,0,8006,8481,100,1,63
21.496463918338616,27.137667901607195,0,0,7990,8481,100,1,64
21.514017705509996,27.137667901607195,0,0,8006,8481,100,1,65
21.514017705509996,27.137667901607195,0,0,7990,8481,100,1,66
21.514017705509996,27.13382906384932,0,0,8006,8481,100,1,67
21.588573116545643,27.000066040363073,0,0,7990,8481,100,1,68
21.588573116545643,26.914722299886783,0,0,8006,8481,100,1,69
21.588573116545643,26.91091499954757,0,0,7990,8481,100,1,70
21.736059076628848,26.828768609979633,0,0,8006,8481,100,1,71
21.7391342491043,26.828768609979633,0,0,7990,8481,100,1,72
21.7391342491043,26.828768609979633,0,0,8006,8481,100,1,73
21.574985972936798,26.93277500966236,0,0,7990,8481,100,1,74
21.574985972936798,26.93277500966236,0,0,8006,8481,100,1,75
21.486366636173855,26.879593329929918,0,0,7990,8481,100,1,76
21.486366636173855,26.879593329929918,0,0,8006,8481,100,1,77
21.486366636173855,26.966014044773118,0,0,7990,8481,100,1,78
21.496463918338616,26.99206982503668,0,0,7931,8481,100,1,79
21.496463918338616,27.60256985284111,0,0,6803,8481,100,1,80
21.33351510388662,28.40557099045207,0,0,5210,8481,100,1,81
21.322909901185284,28.40557099045207,0,0,3650,8481,100,1,82
21.33351510388662,27.163559028865787,0,0,2145,8481,100,1,83
21.39775573214695,27.112048370015202,0,0,754,8481,100,1,84
21.46954753266244,27.112048370015202,0,0,4,8481,100,1,85
21.39775573214695,27.162921338563535,0,0,0,8481,100,1,86
21.46954753266244,27.162921338563535,0,0,0,8481,100,1,87
21.57447947968561,27.02549326739347,0,0,0,8481,100,1,88
21.57447947968561,26.914722299886783,0,0,0,8481,100,1,89
21.67714523117952,26.910283419019184,0,0,0,8481,100,1,90
21.735548946383304,26.82434390492947,0,0,0,8481,100,1,91
21.735548946383304,26.854359232549736,0,0,0,8481,100,1,92
21.735548946383304,26.854359232549736,0,0,0,8481,100,1,93
21.574985972936798,26.906363226706453,0,0,0,8481,100,1,94
21.574985972936798,26.906363226706453,0,0,0,8481,100,1,95
21.574985972936798,26.853728801005854,0,0,0,8481,100,1,96
21.56125668372249,26.853728801005854,0,0,0,8481,100,1,97
21.574985972936798,26.875791177348017,0,0,0,8481,100,1,98
21.482823020872427,26.961566704671103,0,0,0,8481,100,1,99
21.482823020872427,27.60256985284111,0,0,0,8481,100,1,100
21.319393243805457,28.40557099045207,0,0,0,8481,100,1,101
21.319393243805457,28.40557099045207,0,0,112,8481,100,1,102
21.410952687462824,27.162921338563535,0,0,811,8481,100,1,103
21.410952687462824,27.111411888974498,0,0,1784,8481,100,1,104
21.472584857035326,27.111411888974498,0,0,2897,8481,100,1,105
21.472584857035326,27.137030819123694,0,0,4111,8481,100,1,106
21.472584857035326,27.137030819123694,0,0,5363,8481,100,1,107
21.472584857035326,26.935788186954316,0,0,6666,8481,100,1,108
21.57447947968561,26.914090451262663,0,0,7810,8481,100,1,109
21.588066304323384,26.914090451262663,0,0,7990,8481,100,1,110
21.735548946383304,26.88885664284119,0,0,8006,8481,100,1,111
21.738623902316704,26.82434390492947,0,0,7990,8481,100,1,112
21.735548946383304,26.82434390492947,0,0,8006,8481,100,1,113
21.673570151928885,26.901925724449775,0,0,7990,8481,100,1,114
21.482823020872427,26.901925724449775,0,0,8006,8481,100,1,115
21.472584857035326,26.879593329929918,0,0,7990,8481,100,1,116
21.472584857035326,26.875791177348017,0,0,8006,8481,100,1,117
21.482823020872427,26.875791177348017,0,0,7990,8481,100,1,118
21.496463918338616,26.98761818771387,0,0,8006,8481,100,1,119
21.496463918338616,27.460946595978992,0,0,7990,8481,100,1,120
21.32240932565888,28.375160966407844,0,0,8006,8481,100,1,121
21.32240932565888,28.375160966407844,0,0,7990,8481,100,1,122
21.410952687462824,27.07716616223515,0,0,8006,8481,100,1,123
21.410952687462824,27.07716616223515,0,0,7990,8481,100,1,124
21.380896232953546,27.107576945363288,0,0,8006,8481,100,1,125
21.380896232953546,27.13319225168231,0,0,7990,8481,100,1,126
21.394226730901067,27.13319225168231,0,0,8006,8481,100,1,127
21.45663813195838,26.935788186954316,0,0,7990,8481,100,1,128
21.571427742189073,26.910283419019184,0,0,8006,8481,100,1,129
21.585012644953252,26.910283419019184,0,0,7990,8481,100,1,130
21.735548946383304,26.82434390492947,0,0,7990,8481,100,1,131
21.735548946383304,26.82434390492947,0,0,7838,8481,100,1,132
21.735548946383304,26.82434390492947,0,0,6485,8481,100,1,133
21.673570151928885,26.901925724449775,0,0,4912,8481,100,1,134
21.482823020872427,26.901925724449775,0,0,3351,8481,100,1,135
21.482823020872427,26.875791177348017,0,0,1891,8481,100,1,136
21.482823020872427,26.875791177348017,0,0,549,8481,100,1,137
21.482823020872427,26.875791177348017,0,0,0,8481,100,1,138
21.482823020872427,26.961566704671103,0,0,0,8481,100,1,139
21.407924081038527,27.405323206175183,0,0,0,8481,100,1,140
21.319393243805457,28.375160966407844,0,0,0,8481,100,1,141
21.319393243805457,28.375160966407844,0,0,0,8481,100,1,142
21.319393243805457,27.185236741197894,0,0,0,8481,100,1,143
21.380896232953546,27.107576945363288,0,0,0,8481,100,1,144
21.380896232953546,27.107576945363288,0,0,0,8481,100,1,145
21.367933273784008,27.15907910887532,0,0,0,8481,100,1,146
21.367431367444283,27.15907910887532,0,0,0,8481,100,1,147
21.367431367444283,26.9351554985851,0,0,0,8481,100,1,148
21.482823020872427,26.910283419019184,0,0,0,8481,100,1,149
21.558206816607207,26.910283419019184,0,0,0,8481,100,1,150
21.64993639765789,26.82434390492947,0,0,0,8481,100,1,151
21.64993639765789,26.849930306994384,0,0,0,8481,100,1,152
21.646873986684554,26.849930306994384,0,0,0,8481,100,1,153
21.585012644953252,26.99143616060608,0,0,5,8481,100,1,154
21.585012644953252,26.99143616060608,0,0,455,8481,100,1,155
21.585012644953252,26.7900407988461,0,0,1334,8481,100,1,156
21.496463918338616,26.7900407988461,0,0,2392,8481,100,1,157
21.496463918338616,26.965380992026656,0,0,3571,8481,100,1,158
21.394226730901067,26.98761818771387,0,0,4810,8481,100,1,159
21.308653113476172,27.43688360315412,0,0,6111,8481,100,1,160
21.248057785655686,28.40557099045207,0,0,7409,8481,100,1,161
21.248057785655686,28.40557099045207,0,0,7990,8481,100,1,162
21.319393243805457,27.185236741197894,0,0,8006,8481,100,1,163
21.394226730901067,27.13319225168231,0,0,7990,8481,100,1,164
21.394226730901067,27.13319225168231,0,0,8006,8481,100,1,165
21.394226730901067,27.13319225168231,0,0,7990,8481,100,1,166
21.46954753266244,27.13319225168231,0,0,8006,8481,100,1,167
21.482823020872427,27.021670477080296,0,0,7990,8481,100,1,168
21.482823020872427,26.910283419019184,0,0,8006,8481,100,1,169
21.646873986684554,26.82434390492947,0,0,7990,8481,100,1,170
21.646873986684554,26.82434390492947,0,0,8006,8481,100,1,171
21.646873986684554,26.82434390492947,0,0,7990,8481,100,1,172
21.646873986684554,26.82434390492947,0,0,8006,8481,100,1,173
21.571427742189073,26.901925724449775,0,0,7990,8481,100,1,174
21.153561982550592,26.901925724449775,0,0,8006,8481,100,1,175
21.153561982550592,26.901925724449775,0,0,7990,8481,100,1,176
21.292253017208754,26.901925724449775,0,0,8006,8481,100,1,177
21.60201647075635,26.98761818771387,0,0,7990,8481,100,1,178
21.60201647075635,26.99143616060608,0,0,8006,8481,100,1,179
21.308653113476172,27.409200272331063,0,0,7990,8481,100,1,180
21.308653113476172,28.374494468951248,0,0,8006,8481,100,1,181
21.230871519227822,28.374494468951248,0,0,7990,8481,100,1,182
21.34750238998043,27.185236741197894,0,0,8006,8481,100,1,183
21.394226730901067,27.021670477080296,0,0,7990,8481,100,1,184
21.407924081038527,27.021670477080296,0,0,7429,8481,100,1,185
21.407924081038527,27.13319225168231,0,0,5932,8481,100,1,186
21.482823020872427,27.13319225168231,0,0,4399,8481,100,1,187
21.482823020872427,27.021670477080296,0,0,2945,8481,100,1,188
21.482823020872427,26.90965132972544,0,0,1578,8481,100,1,189
21.571427742189073,26.82434390492947,0,0,367,8481,100,1,190
21.646873986684554,26.82371383424868,0,0,0,8481,100,1,191
21.646873986684554,26.82434390492947,0,0,0,8481,100,1,192
21.585012644953252,26.849930306994384,0,0,0,8481,100,1,193
21.558206816607207,26.901925724449775,0,0,0,8481,100,1,194
21.496463918338616,26.901925724449775,0,0,0,8481,100,1,195
21.496463918338616,26.875791177348017,0,0,0,8481,100,1,196
21.496463918338616,26.875791177348017,0,0,0,8481,100,1,197
21.407924081038527,26.875791177348017,0,0,0,8481,100,1,198
21.394226730901067,26.961566704671103,0,0,0,8481,100,1,199
21.394226730901067,27.26532645537292,0,0,0,8481,100,1,200
21.305638977456418,28.40557099045207,0,0,0,8481,100,1,201
21.32240932565888,28.40557099045207,0,0,0,8481,100,1,202
21.32240932565888,27.189082671439834,0,0,0,8481,100,1,203
21.496463918338616,27.107576945363288,0,0,0,8481,100,1,204
21.496463918338616,27.107576945363288,0,0,0,8481,100,1,205
21.292253017208754,27.132554926535622,0,0,0,8481,100,1,206
21.292253017208754,27.132554926535622,0,0,393,8481,100,1,207
21.38039402212993,27.021035771442243,0,0,1232,8481,100,1,208
21.472080349848028,26.82434390492947,0,0,2248,8481,100,1,209
21.585012644953252,26.82434390492947,0,0,3382,8481,100,1,210
21.663105065078728,26.82434390492947,0,0,4569,8481,100,1,211
21.673061066556688,26.82434390492947,0,0,5816,8481,100,1,212
21.673061066556688,26.82434390492947,0,0,7068,8481,100,1,213
21.482823020872427,26.905731574319507,0,0,7974,8481,100,1,214
21.394226730901067,26.905731574319507,0,0,7990,8481,100,1,215
21.394226730901067,26.875791177348017,0,0,7990,8481,100,1,216
21.394226730901067,26.875791177348017,0,0,8006,8481,100,1,217
21.292253017208754,26.935788186954316,0,0,7990,8481,100,1,218
21.292253017208754,26.961566704671103,0,0,8006,8481,100,1,219
21.333014005987156,27.152230726635842,0,0,7990,8481,100,1,220
21.333014005987156,28.404903778701595,0,0,8006,8481,100,1,221
21.319393243805457,28.404903778701595,0,0,7990,8481,100,1,222
21.319393243805457,27.073336062725435,0,0,8006,8481,100,1,223
21.407924081038527,27.021035771442243,0,0,7990,8481,100,1,224
21.407924081038527,27.021035771442243,0,0,8006,8481,100,1,225
21.394226730901067,27.15844117567836,0,0,7990,8481,100,1,226
21.394226730901067,27.15844117567836,0,0,8006,8481,100,1,227
21.496463918338616,27.021670477080296,0,0,7990,8481,100,1,228
21.496463918338616,26.90965132972544,0,0,8006,8481,100,1,229
21.58450563968743,26.88442168328531,0,0,7990,8481,100,1,230
21.64636552837228,26.82371383424868,0,0,8006,8481,100,1,231
21.64636552837228,26.82434390492947,0,0,7990,8481,100,1,232
21.864489774568362,26.82434390492947,0,0,8006,8481,100,1,233
21.864489774568362,26.901925724449775,0,0,7990,8481,100,1,234
21.380896232953546,26.901925724449775,0,0,7994,8481,100,1,235
21.282246458889656,26.879593329929918,0,0,7990,8481,100,1,236
21.282246458889656,26.875159898234394,0,0,7007,8481,100,1,237
21.612763949295754,26.875159898234394,0,0,5400,8481,100,1,238
21.612763949295754,26.986984281922002,0,0,3771,8481,100,1,239
21.50996427554629,27.125450381008275,0,0,2216,8481,100,1,240
21.23037283229929,28.344335865612827,0,0,757,8481,100,1,241
21.23037283229929,28.344335865612827,0,0,2,8481,100,1,242
21.318892477611033,27.04673183233047,0,0,0,8481,100,1,243
21.318892477611033,27.021035771442243,0,0,0,8481,100,1,244
21.278736235172925,27.021035771442243,0,0,0,8481,100,1,245
21.278736235172925,27.132554926535622,0,0,0,8481,100,1,246
21.278736235172925,27.132554926535622,0,0,0,8481,100,1,247
21.278736235172925,27.021035771442243,0,0,0,8481,100,1,248
21.469043239529373,26.82371383424868,0,0,0,8481,100,1,249
21.57092105601582,26.82371383424868,0,0,0,8481,100,1,250
21.64636552837228,26.82371383424868,0,0,0,8481,100,1,251
21.64636552837228,26.82371383424868,0,0,0,8481,100,1,252
21.66259608154101,26.82371383424868,0,0,0,8481,100,1,253
21.686951978145736,26.901293831467942,0,0,0,8481,100,1,254
21.82220531266546,26.901293831467942,0,0,0,8481,100,1,255
21.82220531266546,26.878961782861094,0,0,0,8481,100,1,0
21.8191186790533,26.875159898234394,0,0,0,8481,100,1,1
21.73386303407705,26.875159898234394,0,0,0,8481,100,1,2
21.495958992972923,26.875159898234394,0,0,0,8481,100,1,3
21.393724206960535,27.125450381008275,0,0,408,8481,100,1,4
