BIOZ1,BIOZ2,BIOZ3,BIOZ4,ECG,PPG,EXC_FREQ_KHZ,MUX_CONFIG,PACKET_NUMBER
30.84163863410501,12.081327775032351,8.114525154360225,8.847547084468973,3999,384,10,1,161
30.84163863410501,12.081327775032351,8.114525154360225,8.847547084468973,3999,384,10,1,162
30.820664865537275,12.081327775032351,8.114525154360225,8.847547084468973,3999,384,10,1,163
30.83645723583766,12.060520490808422,8.114525154360225,8.847547084468973,3999,384,10,1,164
30.820664865537275,12.060520490808422,8.114525154360225,8.847547084468973,3999,384,10,1,165
30.83645723583766,12.060520490808422,8.114525154360225,8.847547084468973,3999,448,10,1,166
30.83645723583766,12.060520490808422,8.114525154360225,8.847547084468973,3999,448,10,1,167
30.83645723583766,12.060520490808422,8.114525154360225,8.847547084468973,3999,448,10,1,168
30.83645723583766,12.060520490808422,8.114525154360225,8.847547084468973,3999,448,10,1,169
30.83645723583766,12.060520490808422,8.114525154360225,8.847547084468973,3999,448,10,1,170
30.83645723583766,12.074198141025416,8.114525154360225,8.847547084468973,3999,320,10,1,171
30.84163863410501,12.076719353806125,8.114525154360225,8.847547084468973,3999,320,10,1,172
30.84163863410501,12.081327775032351,8.114525154360225,8.847547084468973,3999,320,10,1,173
30.863838875328092,12.076719353806125,8.114525154360225,8.847547084468973,3999,320,10,1,174
30.84163863410501,12.081327775032351,8.114525154360225,8.847547084468973,3999,320,10,1,175
30.84163863410501,12.081327775032351,8.114525154360225,8.847547084468973,3999,320,10,1,176
30.820664865537275,12.081327775032351,8.114525154360225,8.847547084468973,3999,320,10,1,177
30.820664865537275,12.081327775032351,8.114525154360225,8.847547084468973,3999,320,10,1,178
30.820664865537275,12.081327775032351,8.114525154360225,8.847547084468973,3999,320,10,1,179
30.820664865537275,12.060520490808422,8.114525154360225,8.847547084468973,3999,128,10,1,180
30.83645723583766,12.060520490808422,8.114525154360225,8.847547084468973,3999,128,10,1,181
30.8546657041429,12.060520490808422,8.114525154360225,8.847547084468973,3999,128,10,1,182
30.8546657041429,12.081327775032351,8.114525154360225,8.847547084468973,3999,128,10,1,183
30.8546657041429,12.081327775032351,8.114525154360225,8.847547084468973,3999,256,10,1,184
30.845638874028843,12.074198141025416,8.114525154360225,8.847547084468973,3999,256,10,1,185
30.845638874028843,12.074198141025416,8.114525154360225,8.847547084468973,3999,256,10,1,186
30.845638874028843,12.076719353806125,8.114525154360225,8.847547084468973,3999,256,10,1,187
30.84163863410501,12.081327775032351,8.114525154360225,8.847547084468973,3999,256,10,1,188
30.84163863410501,12.081327775032351,8.114525154360225,8.847547084468973,3999,256,10,1,189
30.84163863410501,12.081327775032351,8.114525154360225,8.847547084468973,3999,448,10,1,190
30.84163863410501,12.076719353806125,8.114525154360225,8.847547084468973,3999,448,10,1,191
30.84163863410501,12.060520490808422,8.114525154360225,8.847547084468973,3999,448,10,1,192
30.820664865537275,12.060520490808422,8.114525154360225,8.847547084468973,3999,448,10,1,193
30.820664865537275,12.060520490808422,8.114525154360225,8.847547084468973,3999,448,10,1,194
30.820664865537275,12.060520490808422,8.114525154360225,8.847547084468973,3999,256,10,1,195
30.83645723583766,12.074198141025416,8.114525154360225,8.847547084468973,3999,256,10,1,196
30.84163863410501,12.074198141025416,8.114525154360225,8.847547084468973,3999,256,10,1,197
30.84163863410501,12.074198141025416,8.114525154360225,8.847547084468973,3999,256,10,1,198
30.875616375991054,12.074198141025416,8.114525154360225,8.847547084468973,3999,256,10,1,199
30.84163863410501,12.081327775032351,8.114525154360225,8.847547084468973,3999,256,10,1,200
30.863838875328092,12.081327775032351,8.114525154360225,8.847547084468973,3999,384,10,1,201
30.863838875328092,12.081327775032351,8.114525154360225,8.847547084468973,3999,384,10,2,203
30.863838875328092,12.081327775032351,62.38099221347195,68.27381260770959,3999,384,10,2,204
30.863838875328092,12.081327775032351,62.39613923669119,68.28466304661745,3999,384,10,2,205
30.863838875328092,12.081327775032351,62.39641929486141,68.2888594385276,3999,384,10,2,206
30.863838875328092,12.081327775032351,62.39669935279909,68.2888594385276,3999,384,10,2,207
30.863838875328092,12.081327775032351,62.39706115116392,68.28658847150624,3999,384,10,2,208
30.863838875328092,12.081327775032351,62.39669935279909,68.28589293403483,3999,384,10,2,209
30.863838875328092,12.081327775032351,62.39706115116392,68.28658847150624,3999,384,10,2,210
30.863838875328092,12.081327775032351,62.39706115116392,68.28936224682104,3999,448,10,2,211
30.863838875328092,12.081327775032351,62.39706115116392,68.28936224682104,3999,448,10,2,212
30.863838875328092,12.081327775032351,62.39706115116392,68.28874683945699,3999,448,10,2,213
30.863838875328092,12.081327775032351,62.39706115116392,68.28874683945699,3999,448,10,2,214
30.863838875328092,12.081327775032351,62.396781021926365,68.28874683945699,3999,448,10,2,215
30.863838875328092,12.081327775032351,62.39706115116392,68.28936224682104,3999,448,10,2,216
30.863838875328092,12.081327775032351,62.396781021926365,68.28874683945699,3999,448,10,2,217
30.863838875328092,12.081327775032351,62.39706115116392,68.2929439904431,3999,448,10,2,218
30.863838875328092,12.081327775032351,62.39706115116392,68.28936224682104,3999,448,10,2,219
30.863838875328092,12.081327775032351,62.39986946096611,68.2929439904431,3999,448,10,2,220
30.863838875328092,12.081327775032351,62.39986946096611,68.28936224682104,3999,384,10,2,221
30.863838875328092,12.081327775032351,62.396781021926365,68.28874683945699,3999,384,10,2,222
30.863838875328092,12.081327775032351,62.396781021926365,68.28874683945699,3999,384,10,2,223
30.863838875328092,12.081327775032351,62.39958899916619,68.28874683945699,3999,384,10,2,224
30.863838875328092,12.081327775032351,62.39958899916619,68.28874683945699,3999,384,10,2,225
30.863838875328092,12.081327775032351,62.39958899916619,68.28874683945699,3999,320,10,2,226
30.863838875328092,12.081327775032351,62.397341280171446,68.29078557153612,3999,320,10,2,227
30.863838875328092,12.081327775032351,62.397341280171446,68.29078557153612,3999,320,10,2,228
30.863838875328092,12.081327775032351,62.39669935279909,68.28589293403483,3999,320,10,2,229
30.863838875328092,12.081327775032351,62.39669935279909,68.28589293403483,3999,320,10,2,230
30.863838875328092,12.081327775032351,62.40025390300713,68.28947449569313,3999,256,10,2,231
30.863838875328092,12.081327775032351,62.40025390300713,68.28947449569313,3999,256,10,2,232
30.863838875328092,12.081327775032351,62.40025390300713,68.28947449569313,3999,256,10,2,233
30.863838875328092,12.081327775032351,62.39706115116392,68.28936224682104,3999,256,10,2,234
30.863838875328092,12.081327775032351,62.39986946096611,68.29224817246467,3999,192,10,2,235
30.863838875328092,12.081327775032351,62.39669935279909,68.28589293403483,3999,192,10,2,236
30.863838875328092,12.081327775032351,62.39706115116392,68.28936224682104,3999,192,10,2,237
30.863838875328092,12.081327775032351,62.39706115116392,68.28874683945699,3999,192,10,2,238
30.863838875328092,12.081327775032351,62.39706115116392,68.28936224682104,3999,192,10,2,239
30.863838875328092,12.081327775032351,62.39706115116392,68.28936224682104,3999,192,10,2,240
30.863838875328092,12.081327775032351,62.39706115116392,68.28936224682104,3999,192,10,2,241
30.863838875328092,12.081327775032351,62.39641929486141,68.28805149064443,3999,128,10,2,242
30.863838875328092,12.081327775032351,62.39641929486141,68.28805149064443,3999,128,10,2,243
30.863838875328092,12.081327775032351,62.396781021926365,68.28874683945699,3999,256,10,2,244
30.863838875328092,12.081327775032351,62.39706115116392,68.29005773792956,3999,256,10,2,245
30.863838875328092,12.081327775032351,62.396781021926365,68.28874683945699,3999,256,10,2,246
30.863838875328092,12.081327775032351,62.39742295311427,68.29005773792956,3999,256,10,2,247
30.863838875328092,12.081327775032351,62.39641929486141,68.28866675627846,3999,256,10,2,248
30.863838875328092,12.081327775032351,62.39706115116392,68.28936224682104,3999,256,10,2,249
30.863838875328092,12.081327775032351,62.39706115116392,68.28936224682104,3999,256,10,2,250
30.863838875328092,12.081327775032351,62.39706115116392,68.28936224682104,3999,448,10,2,251
30.863838875328092,12.081327775032351,62.39706115116392,68.28936224682104,3999,448,10,2,252
30.863838875328092,12.081327775032351,62.39706115116392,68.2929439904431,3999,448,10,2,253
30.863838875328092,12.081327775032351,62.39706115116392,68.2929439904431,3999,448,10,2,254
30.863838875328092,12.081327775032351,62.396781021926365,68.28874683945699,3999,448,10,2,255
30.863838875328092,12.081327775032351,62.396781021926365,68.28874683945699,3999,320,10,2,0
30.863838875328092,12.081327775032351,62.39706115116392,68.28936224682104,3999,320,10,2,1
30.863838875328092,12.081327775032351,62.39706115116392,68.28936224682104,3999,320,10,2,2
30.863838875328092,12.081327775032351,62.396781021926365,68.28874683945699,3999,320,10,2,3
30.863838875328092,12.081327775032351,62.396781021926365,68.28874683945699,3999,320,10,2,4
30.863838875328092,12.081327775032351,62.39641929486141,68.28527798432035,3999,448,10,2,5
30.863838875328092,12.081327775032351,62.39706115116392,68.28874683945699,3999,448,10,2,6
30.863838875328092,12.081327775032351,62.39669935279909,68.28947449569313,3999,448,10,2,7
30.863838875328092,12.081327775032351,62.39706115116392,68.2929439904431,3999,448,10,2,8
30.863838875328092,12.081327775032351,62.39669935279909,68.28947449569313,3999,448,10,2,9
30.863838875328092,12.081327775032351,62.39706115116392,68.2929439904431,3999,320,10,2,10
30.863838875328092,12.081327775032351,62.39706115116392,68.28936224682104,3999,320,10,2,11
30.863838875328092,12.081327775032351,62.39706115116392,68.29224817246467,3999,320,10,2,12
30.863838875328092,12.081327775032351,62.39706115116392,68.29224817246467,3999,320,10,2,13
30.863838875328092,12.081327775032351,62.39669935279909,68.29224817246467,3999,320,10,2,14
30.863838875328092,12.081327775032351,62.400616041942335,68.29017036060974,3999,384,10,2,15
30.863838875328092,12.081327775032351,62.39706115116392,68.29017036060974,3999,384,10,2,16
30.863838875328092,12.081327775032351,62.39706115116392,68.29017036060974,3999,384,10,2,17
30.863838875328092,12.081327775032351,62.396781021926365,68.28874683945699,3999,384,10,2,18
30.863838875328092,12.081327775032351,62.396781021926365,68.28874683945699,3999,384,10,2,19
30.863838875328092,12.081327775032351,62.39706115116392,68.28936224682104,3999,448,10,2,20
30.863838875328092,12.081327775032351,62.400616041942335,68.29017036060974,3999,448,10,2,21
30.863838875328092,12.081327775032351,62.39706115116392,68.28936224682104,3999,448,10,2,22
30.863838875328092,12.081327775032351,62.39706115116392,68.28936224682104,3999,448,10,2,23
30.863838875328092,12.081327775032351,62.39706115116392,68.28936224682104,3999,448,10,2,24
30.863838875328092,12.081327775032351,62.39706115116392,68.28936224682104,3999,448,10,2,25
30.863838875328092,12.081327775032351,62.39706115116392,68.28936224682104,3999,384,10,2,26
30.863838875328092,12.081327775032351,62.39706115116392,68.28936224682104,3999,384,10,2,27
30.863838875328092,12.081327775032351,62.39706115116392,68.28936224682104,3999,384,10,2,28
30.863838875328092,12.081327775032351,62.39706115116392,68.28936224682104,3999,128,10,2,29
30.863838875328092,12.081327775032351,62.39706115116392,68.28936224682104,3999,128,10,2,30
30.863838875328092,12.081327775032351,62.400616041942335,68.28874683945699,3999,64,10,2,31
30.863838875328092,12.081327775032351,62.39641929486141,68.28805149064443,3999,64,10,2,32
30.863838875328092,12.081327775032351,62.39641929486141,68.28805149064443,3999,320,10,2,33
30.863838875328092,12.081327775032351,62.39641929486141,68.28874683945699,3999,320,10,2,34
30.863838875328092,12.081327775032351,62.397341280171446,68.29224817246467,3999,256,10,2,35
30.863838875328092,12.081327775032351,62.397341280171446,68.29224817246467,3999,256,10,2,36
30.863838875328092,12.081327775032351,62.39706115116392,68.28947449569313,3999,256,10,2,37
30.863838875328092,12.081327775032351,62.39706115116392,68.28936224682104,3999,256,10,2,38
30.863838875328092,12.081327775032351,62.39706115116392,68.28947449569313,3999,256,10,2,39
30.863838875328092,12.081327775032351,62.39706115116392,68.28947449569313,3999,384,10,2,40
30.863838875328092,12.081327775032351,62.39706115116392,68.2929439904431,3999,384,10,2,41
30.863838875328092,12.081327775032351,62.39706115116392,68.2929439904431,3999,384,10,2,42
30.863838875328092,12.081327775032351,62.39706115116392,68.2929439904431,3999,384,10,2,43
30.863838875328092,12.081327775032351,62.39669935279909,68.28805149064443,3999,384,10,2,44
30.863838875328092,12.081327775032351,62.39669935279909,68.28805149064443,3999,384,10,2,45
30.863838875328092,12.081327775032351,62.39669935279909,68.28805149064443,4867,384,10,1,48
43.7279006245926,45.70989469774295,62.39669935279909,68.28805149064443,4867,384,10,1,49
43.7279006245926,45.712854649172854,62.39669935279909,68.28805149064443,2537,256,10,1,50
43.72732720815884,45.712854649172854,62.39669935279909,68.28805149064443,1890,256,10,1,51
43.72474348138422,45.712854649172854,62.39669935279909,68.28805149064443,1247,256,10,1,52
43.72474348138422,45.712854649172854,62.39669935279909,68.28805149064443,628,256,10,1,53
43.72474348138422,45.712854649172854,62.39669935279909,68.28805149064443,99,256,10,1,54
43.72601869789466,45.71405208218457,62.39669935279909,68.28805149064443,0,320,10,1,55
43.72601869789466,45.71405208218457,62.39669935279909,68.28805149064443,0,320,10,1,56
43.72601869789466,45.712854649172854,62.39669935279909,68.28805149064443,0,320,10,1,57
43.72556972197118,45.712854649172854,62.39669935279909,68.28805149064443,0,320,10,1,58
43.72474348138422,45.712854649172854,62.39669935279909,68.28805149064443,0,320,10,1,59
43.72474348138422,45.712854649172854,62.39669935279909,68.28805149064443,0,256,10,1,60
43.72474348138422,45.712854649172854,62.39669935279909,68.28805149064443,0,256,10,1,61
43.72474348138422,45.712854649172854,62.39669935279909,68.28805149064443,0,256,10,1,62
43.72601869789466,45.71405208218457,62.39669935279909,68.28805149064443,0,256,10,1,63
43.72474348138422,45.71555585487693,62.39669935279909,68.28805149064443,0,256,10,1,64
43.72474348138422,45.71555585487693,62.39669935279909,68.28805149064443,0,448,10,1,65
43.72474348138422,45.716283891329105,62.39669935279909,68.28805149064443,0,448,10,1,66
43.72544557443458,45.71555585487693,62.39669935279909,68.28805149064443,0,448,10,1,67
43.72544557443458,45.71555585487693,62.39669935279909,68.28805149064443,0,448,10,1,68
43.72474348138422,45.712854649172854,62.39669935279909,68.28805149064443,0,448,10,1,69
43.72474348138422,45.712854649172854,62.39669935279909,68.28805149064443,0,256,10,1,70
43.72474348138422,45.712854649172854,62.39669935279909,68.28805149064443,0,256,10,1,71
43.72474348138422,45.712854649172854,62.39669935279909,68.28805149064443,0,256,10,1,72
43.72732720815884,45.712854649172854,62.39669935279909,68.28805149064443,0,256,10,1,73
43.72732720815884,45.712126567655304,62.39669935279909,68.28805149064443,0,256,10,1,74
43.72474348138422,45.712854649172854,62.39669935279909,68.28805149064443,0,256,10,1,75
43.72474348138422,45.712854649172854,62.39669935279909,68.28805149064443,0,384,10,1,76
43.72474348138422,45.712854649172854,62.39669935279909,68.28805149064443,0,384,10,1,77
43.72474348138422,45.712854649172854,62.39669935279909,68.28805149064443,0,384,10,1,78
43.722608896635926,45.712854649172854,62.39669935279909,68.28805149064443,0,384,10,1,79
43.722608896635926,45.712854649172854,62.39669935279909,68.28805149064443,0,384,10,1,80
43.72474348138422,45.712854649172854,62.39669935279909,68.28805149064443,0,384,10,1,81
43.72474348138422,45.712854649172854,62.39669935279909,68.28805149064443,0,384,10,1,82
43.72474348138422,45.712854649172854,62.39669935279909,68.28805149064443,0,384,10,1,83
43.72815344911312,45.712854649172854,62.39669935279909,68.28805149064443,0,384,10,1,84
43.72815344911312,45.713582693263284,62.39669935279909,68.28805149064443,0,192,10,1,85
43.72556972197118,45.713582693263284,62.39669935279909,68.28805149064443,0,192,10,1,86
43.72474348138422,45.712854649172854,62.39669935279909,68.28805149064443,0,192,10,1,87
43.72474348138422,45.712854649172854,62.39669935279909,68.28805149064443,0,192,10,1,88
43.72474348138422,45.712854649172854,62.39669935279909,68.28805149064443,0,192,10,1,89
43.72531711620931,45.712854649172854,62.39669935279909,68.28805149064443,0,192,10,1,90
43.72601869789466,45.712854649172854,62.39669935279909,68.28805149064443,0,128,10,1,91
43.72815344911312,45.712854649172854,62.39669935279909,68.28805149064443,0,128,10,1,92
43.72601869789466,45.71405208218457,62.39669935279909,68.28805149064443,0,128,10,1,93
43.72531711620931,45.71405208218457,62.39669935279909,68.28805149064443,0,320,10,1,94
43.72474348138422,45.71405208218457,62.39669935279909,68.28805149064443,0,320,10,1,95
43.72474348138422,45.712854649172854,62.39669935279909,68.28805149064443,0,320,10,1,96
43.72474348138422,45.712854649172854,62.39669935279909,68.28805149064443,0,320,10,1,97
43.72343534911443,45.710623007439445,62.39669935279909,68.28805149064443,0,320,10,1,98
43.72474348138422,45.712854649172854,62.39669935279909,68.28805149064443,0,320,10,1,99
43.72343534911443,45.710623007439445,62.39669935279909,68.28805149064443,0,320,10,1,100
43.722608896635926,45.710623007439445,62.39669935279909,68.28805149064443,0,320,10,1,101
43.722608896635926,45.710623007439445,62.39669935279909,68.28805149064443,0,320,10,1,102
43.722608896635926,45.710623007439445,62.39669935279909,68.28805149064443,0,320,10,1,103
43.72531711620931,45.71330677024796,62.39669935279909,68.28805149064443,0,320,10,1,104
43.722608896635926,45.710623007439445,62.39669935279909,68.28805149064443,0,320,10,1,105
43.72474348138422,45.712854649172854,62.39669935279909,68.28805149064443,0,320,10,1,106
43.72474348138422,45.712854649172854,62.39669935279909,68.28805149064443,0,320,10,1,107
43.72474348138422,45.712854649172854,62.39669935279909,68.28805149064443,0,320,10,1,108
43.72474348138422,45.712854649172854,62.39669935279909,68.28805149064443,0,320,10,1,109
43.72474348138422,45.712854649172854,62.39669935279909,68.28805149064443,0,320,10,1,110
43.72474348138422,45.712854649172854,62.39669935279909,68.28805149064443,0,384,10,1,111
43.722608896635926,45.710623007439445,62.39669935279909,68.28805149064443,0,384,10,1,112
43.722608896635926,45.710623007439445,62.39669935279909,68.28805149064443,0,384,10,1,113
43.72474348138422,45.712854649172854,62.39669935279909,68.28805149064443,0,384,10,1,114
43.72474348138422,45.712854649172854,62.39669935279909,68.28805149064443,0,384,10,1,115
43.72474348138422,45.712854649172854,62.39669935279909,68.28805149064443,0,448,10,1,116
43.72474348138422,45.712854649172854,62.39669935279909,68.28805149064443,0,448,10,1,117
43.72474348138422,45.712854649172854,62.39669935279909,68.28805149064443,0,448,10,1,118
43.72474348138422,45.712854649172854,62.39669935279909,68.28805149064443,0,448,10,1,119
43.72531711620931,45.71330677024796,62.39669935279909,68.28805149064443,0,448,10,1,120
43.72732720815884,45.71405208218457,62.39669935279909,68.28805149064443,0,448,10,1,121
43.72531711620931,45.71330677024796,62.39669935279909,68.28805149064443,0,448,10,1,122
43.72474348138422,45.712854649172854,62.39669935279909,68.28805149064443,0,448,10,1,123
43.72474348138422,45.712854649172854,62.39669935279909,68.28805149064443,0,448,10,1,124
43.72601869789466,45.71405208218457,62.39669935279909,68.28805149064443,0,448,10,1,125
43.72601869789466,45.71405208218457,62.39669935279909,68.28805149064443,0,384,10,1,126
43.72601869789466,45.712854649172854,62.39669935279909,68.28805149064443,0,384,10,1,127
43.72601869789466,45.712854649172854,62.39669935279909,68.28805149064443,0,384,10,1,128
43.72815344911312,45.712854649172854,62.39669935279909,68.28805149064443,0,384,10,1,129
43.72815344911312,45.712854649172854,62.39669935279909,68.28805149064443,0,384,10,1,130
43.72474348138422,45.712854649172854,62.39669935279909,68.28805149064443,0,320,10,1,131
43.72474348138422,45.712854649172854,62.39669935279909,68.28805149064443,0,320,10,1,132
43.72474348138422,45.712854649172854,62.39669935279909,68.28805149064443,0,320,10,1,133
43.72474348138422,45.712854649172854,62.39669935279909,68.28805149064443,0,320,10,1,134
43.72474348138422,45.712854649172854,62.39669935279909,68.28805149064443,0,128,10,1,135
43.72474348138422,45.712854649172854,62.39669935279909,68.28805149064443,0,128,10,1,136
43.72474348138422,45.712854649172854,62.39669935279909,68.28805149064443,0,128,10,1,137
43.72474348138422,45.712854649172854,62.39669935279909,68.28805149064443,0,128,10,1,138
43.72474348138422,45.712854649172854,62.39669935279909,68.28805149064443,0,384,10,1,139
43.72474348138422,45.712854649172854,62.39669935279909,68.28805149064443,0,448,10,1,140
43.72474348138422,45.712854649172854,62.39669935279909,68.28805149064443,0,448,10,1,141
43.72474348138422,45.712854649172854,62.39669935279909,68.28805149064443,0,448,10,1,142
43.72474348138422,45.712854649172854,62.39669935279909,68.28805149064443,0,448,10,1,143
43.72474348138422,45.712854649172854,62.39669935279909,68.28805149064443,0,448,10,1,144
43.72474348138422,45.712854649172854,62.39669935279909,68.28805149064443,0,320,10,1,145
43.72474348138422,45.712854649172854,62.39669935279909,68.28805149064443,0,320,10,1,146
43.72474348138422,45.712854649172854,62.39641929486141,68.28805149064443,0,320,10,2,148
43.72474348138422,45.712854649172854,62.39333173456962,68.28824439335992,0,320,10,2,149
43.72474348138422,45.712854649172854,62.392584996978805,68.28743623706438,0,320,10,2,150
43.72474348138422,45.712854649172854,62.39333173456962,68.28824439335992,0,320,10,2,151
43.72474348138422,45.712854649172854,62.39641929486141,68.28936224682104,0,320,10,2,152
43.72474348138422,45.712854649172854,62.39641929486141,68.28936224682104,0,320,10,2,153
43.72474348138422,45.712854649172854,62.39389118566782,68.28589293403483,0,320,10,2,154
43.72474348138422,45.712854649172854,62.39389118566782,68.28589293403483,0,448,10,2,155
43.72474348138422,45.712854649172854,62.39669935279909,68.28589293403483,0,448,10,2,156
43.72474348138422,45.712854649172854,62.39669935279909,68.2859733800855,0,448,10,2,157
43.72474348138422,45.712854649172854,62.39669935279909,68.2859733800855,0,448,10,2,158
43.72474348138422,45.712854649172854,62.396781021926365,68.2859733800855,0,448,10,2,159
43.72474348138422,45.712854649172854,62.39706115116392,68.28936224682104,0,448,10,2,160
43.72474348138422,45.712854649172854,62.39706115116392,68.28936224682104,0,448,10,2,161
43.72474348138422,45.712854649172854,62.39706115116392,68.28947449569313,0,448,10,2,162
43.72474348138422,45.712854649172854,62.39669935279909,68.28947449569313,0,448,10,2,163
43.72474348138422,45.712854649172854,62.39669935279909,68.28874683945699,0,448,10,2,164
43.72474348138422,45.712854649172854,62.396781021926365,68.28874683945699,0,448,10,2,165
43.72474348138422,45.712854649172854,62.396781021926365,68.28874683945699,0,256,10,2,166
43.72474348138422,45.712854649172854,62.39706115116392,68.28658847150624,0,256,10,2,167
43.72474348138422,45.712854649172854,62.39706115116392,68.28658847150624,0,256,10,2,168
43.72474348138422,45.712854649172854,62.39706115116392,68.28936224682104,0,256,10,2,169
43.72474348138422,45.712854649172854,62.39706115116392,68.28936224682104,0,256,10,2,170
43.72474348138422,45.712854649172854,62.39706115116392,68.28936224682104,0,256,10,2,171
43.72474348138422,45.712854649172854,62.39706115116392,68.28936224682104,0,256,10,2,172
43.72474348138422,45.712854649172854,62.39706115116392,68.28936224682104,0,256,10,2,173
43.72474348138422,45.712854649172854,62.39706115116392,68.28936224682104,0,256,10,2,174
43.72474348138422,45.712854649172854,62.396781021926365,68.28874683945699,0,256,10,2,175
43.72474348138422,45.712854649172854,62.396781021926365,68.28874683945699,0,320,10,2,176
43.72474348138422,45.712854649172854,62.39669935279909,68.28874683945699,0,320,10,2,177
43.72474348138422,45.712854649172854,62.396781021926365,68.28874683945699,0,320,10,2,178
43.72474348138422,45.712854649172854,62.39669935279909,68.28874683945699,0,320,10,2,179
43.72474348138422,45.712854649172854,62.39669935279909,68.28589293403483,0,320,10,2,180
43.72474348138422,45.712854649172854,62.39669935279909,68.28589293403483,0,256,10,2,181
43.72474348138422,45.712854649172854,62.396781021926365,68.28874683945699,0,256,10,2,182
43.72474348138422,45.712854649172854,62.396781021926365,68.28874683945699,0,256,10,2,183
43.72474348138422,45.712854649172854,62.396781021926365,68.28874683945699,0,256,10,2,184
43.72474348138422,45.712854649172854,62.396781021926365,68.28955516169049,0,256,10,2,185
43.72474348138422,45.712854649172854,62.39706115116392,68.28955516169049,0,256,10,2,186
43.72474348138422,45.712854649172854,62.39706115116392,68.28955516169049,0,256,10,2,187
43.72474348138422,45.712854649172854,62.39706115116392,68.28936224682104,0,256,10,2,188
43.72474348138422,45.712854649172854,62.396781021926365,68.29224817246467,0,256,10,2,189
43.72474348138422,45.712854649172854,62.39669935279909,68.28874683945699,0,0,10,2,190
43.72474348138422,45.712854649172854,62.39669935279909,68.28947449569313,0,0,10,2,191
43.72474348138422,45.712854649172854,62.39669935279909,68.28936224682104,0,0,10,2,192
43.72474348138422,45.712854649172854,62.39706115116392,68.28947449569313,0,0,10,2,193
43.72474348138422,45.712854649172854,62.39706115116392,68.28936224682104,0,0,10,2,194
43.72474348138422,45.712854649172854,62.39669935279909,68.28589293403483,0,0,10,2,195
43.72474348138422,45.712854649172854,62.39389118566782,68.28589293403483,0,0,10,2,196
43.72474348138422,45.712854649172854,62.39669935279909,68.28944218881517,0,64,10,2,197
43.72474348138422,45.712854649172854,62.39742295311427,68.28944218881517,0,64,10,2,198
43.72474348138422,45.712854649172854,62.39742295311427,68.28874683945699,0,320,10,2,199
43.72474348138422,45.712854649172854,62.39706115116392,68.28874683945699,0,320,10,2,200
43.72474348138422,45.712854649172854,62.39706115116392,68.29017036060974,0,448,10,2,201
43.72474348138422,45.712854649172854,62.39706115116392,68.2929439904431,0,448,10,2,202
43.72474348138422,45.712854649172854,62.39958899916619,68.29510197735706,0,448,10,2,203
43.72474348138422,45.712854649172854,62.39706115116392,68.2929439904431,0,448,10,2,204
43.72474348138422,45.712854649172854,62.39389118566782,68.2859733800855,0,448,10,2,205
43.72474348138422,45.712854649172854,62.39361146025806,68.28589293403483,0,384,10,2,206
43.72474348138422,45.712854649172854,62.39361146025806,68.2859733800855,0,384,10,2,207
43.72474348138422,45.712854649172854,62.39706115116392,68.28936224682104,0,384,10,2,208
43.72474348138422,45.712854649172854,62.39706115116392,68.28936224682104,0,384,10,2,209
43.72474348138422,45.712854649172854,62.39669935279909,68.28874683945699,0,384,10,2,210
43.72474348138422,45.712854649172854,62.39669935279909,68.28874683945699,0,448,10,2,211
43.72474348138422,45.712854649172854,62.39706115116392,68.2929439904431,0,448,10,2,212
43.72474348138422,45.712854649172854,62.39706115116392,68.2929439904431,0,448,10,2,213
43.72474348138422,45.712854649172854,62.39706115116392,68.28947449569313,0,448,10,2,214
43.72474348138422,45.712854649172854,62.39706115116392,68.28947449569313,0,448,10,2,215
43.72474348138422,45.712854649172854,62.39706115116392,68.28936224682104,0,384,10,2,216
43.72474348138422,45.712854649172854,62.39314492898188,68.28866675627846,0,384,10,2,217
43.72474348138422,45.712854649172854,62.39314492898188,68.2859733800855,0,384,10,2,218
43.72474348138422,45.712854649172854,62.396781021926365,68.28866675627846,0,384,10,2,219
43.72474348138422,45.712854649172854,62.396781021926365,68.28805149064443,0,384,10,2,220
43.72474348138422,45.712854649172854,62.39986946096611,68.29078557153612,0,384,10,2,221
43.72474348138422,45.712854649172854,62.400616041942335,68.29078557153612,0,384,10,2,222
43.72474348138422,45.712854649172854,62.400616041942335,68.2929439904431,0,384,10,2,223
43.72474348138422,45.712854649172854,62.397341280171446,68.2929439904431,0,384,10,2,224
43.72474348138422,45.712854649172854,62.39706115116392,68.2929439904431,0,384,10,2,225
43.72474348138422,45.712854649172854,62.39706115116392,68.2929439904431,0,384,10,2,226
43.72474348138422,45.712854649172854,62.39706115116392,68.28936224682104,0,384,10,2,227
43.72474348138422,45.712854649172854,62.39706115116392,68.28936224682104,0,384,10,2,228
43.72474348138422,45.712854649172854,62.39706115116392,68.28936224682104,0,384,10,2,229
43.72474348138422,45.712854649172854,62.39706115116392,68.2929439904431,0,384,10,2,230
43.72474348138422,45.712854649172854,62.39986946096611,68.28936224682104,0,384,10,2,231
43.72474348138422,45.712854649172854,62.39995066992286,68.29224817246467,0,256,10,2,232
43.72474348138422,45.712854649172854,62.39986946096611,68.28936224682104,0,256,10,2,233
43.72474348138422,45.712854649172854,62.39669935279909,68.28866675627846,0,256,10,2,234
43.72474348138422,45.712854649172854,62.39669935279909,68.28866675627846,0,256,10,2,235
43.72474348138422,45.712854649172854,62.39669935279909,68.28866675627846,0,256,10,2,236
43.72474348138422,45.712854649172854,62.39706115116392,68.28936224682104,0,448,10,2,237
43.72474348138422,45.712854649172854,62.39706115116392,68.28936224682104,0,448,10,2,238
43.72474348138422,45.712854649172854,62.39706115116392,68.28936224682104,0,448,10,2,239
43.72474348138422,45.712854649172854,62.396781021926365,68.28936224682104,0,448,10,2,240
43.72474348138422,45.712854649172854,62.396781021926365,68.28947449569313,0,192,10,2,241
43.72474348138422,45.712854649172854,62.396781021926365,68.28947449569313,0,128,10,2,242
43.72474348138422,45.712854649172854,62.39706115116392,68.29017036060974,0,128,10,2,243
43.72474348138422,45.712854649172854,62.39669935279909,68.28947449569313,0,384,10,2,244
43.72474348138422,45.712854649172854,62.39706115116392,68.2929439904431,0,384,10,2,245
43.72474348138422,45.712854649172854,62.39706115116392,68.2929439904431,0,256,10,2,246
43.72474348138422,45.712854649172854,62.39706115116392,68.2929439904431,0,256,10,1,249
43.72601869789466,45.712854649172854,62.39706115116392,68.2929439904431,0,256,10,1,250
43.72601869789466,45.710623007439445,62.39706115116392,68.2929439904431,0,256,10,1,251
43.72601869789466,45.710623007439445,62.39706115116392,68.2929439904431,0,384,10,1,252
43.72519224500417,45.710623007439445,62.39706115116392,68.2929439904431,0,384,10,1,253
43.72519224500417,45.71332381753148,62.39706115116392,68.2929439904431,0,384,10,1,254
43.72474348138422,45.71332381753148,62.39706115116392,68.2929439904431,0,384,10,1,255
43.72474348138422,45.716283891329105,62.39706115116392,68.2929439904431,0,256,10,1,0
43.72474348138422,45.712854649172854,62.39706115116392,68.2929439904431,0,256,10,1,1
43.72474348138422,45.716283891329105,62.39706115116392,68.2929439904431,0,256,10,1,2
43.72474348138422,45.712854649172854,62.39706115116392,68.2929439904431,0,256,10,1,3
43.72474348138422,45.716283891329105,62.39706115116392,68.2929439904431,0,256,10,1,4
43.72732720815884,45.71555585487693,62.39706115116392,68.2929439904431,0,448,10,1,5
43.72732720815884,45.71555585487693,62.39706115116392,68.2929439904431,0,448,10,1,6
43.72732720815884,45.71555585487693,62.39706115116392,68.2929439904431,0,448,10,1,7
43.72659187866761,45.71450376187283,62.39706115116392,68.2929439904431,0,448,10,1,8
43.72659187866761,45.716283891329105,62.39706115116392,68.2929439904431,0,448,10,1,9
43.72474348138422,45.71450376187283,62.39706115116392,68.2929439904431,0,384,10,1,10
43.72474348138422,45.71332381753148,62.39706115116392,68.2929439904431,0,384,10,1,11
43.722608896635926,45.712854649172854,62.39706115116392,68.2929439904431,0,384,10,1,12
43.72474348138422,45.712854649172854,62.39706115116392,68.2929439904431,0,384,10,1,13
43.72474348138422,45.712854649172854,62.39706115116392,68.2929439904431,0,384,10,1,14
43.72474348138422,45.712854649172854,62.39706115116392,68.2929439904431,0,320,10,1,15
43.722608896635926,45.710623007439445,62.39706115116392,68.2929439904431,0,320,10,1,16
43.722608896635926,45.710623007439445,62.39706115116392,68.2929439904431,0,320,10,1,17
43.72474348138422,45.712854649172854,62.39706115116392,68.2929439904431,0,320,10,1,18
43.72556972197118,45.713582693263284,62.39706115116392,68.2929439904431,0,320,10,1,19
43.72556972197118,45.713582693263284,62.39706115116392,68.2929439904431,0,384,10,1,20
43.72614319752096,45.713600456051246,62.39706115116392,68.2929439904431,0,384,10,1,21
43.72556972197118,45.713582693263284,62.39706115116392,68.2929439904431,0,384,10,1,22
43.72531711620931,45.71403468264472,62.39706115116392,68.2929439904431,0,384,10,1,23
43.72531711620931,45.716283891329105,62.39706115116392,68.2929439904431,0,384,10,1,24
43.72531711620931,45.716283891329105,62.39706115116392,68.2929439904431,0,384,10,1,25
43.72531711620931,45.712854649172854,62.39706115116392,68.2929439904431,0,320,10,1,26
43.72474348138422,45.712854649172854,62.39706115116392,68.2929439904431,0,320,10,1,27
43.72474348138422,45.712854649172854,62.39706115116392,68.2929439904431,0,320,10,1,28
43.72474348138422,45.71405208218457,62.39706115116392,68.2929439904431,0,320,10,1,29
43.72474348138422,45.712854649172854,62.39706115116392,68.2929439904431,0,320,10,1,30
43.72474348138422,45.71405208218457,62.39706115116392,68.2929439904431,0,384,10,1,31
43.72474348138422,45.712854649172854,62.39706115116392,68.2929439904431,0,384,10,1,32
43.72474348138422,45.712854649172854,62.39706115116392,68.2929439904431,0,384,10,1,33
43.72474348138422,45.712854649172854,62.39706115116392,68.2929439904431,0,384,10,1,34
43.72474348138422,45.712854649172854,62.39706115116392,68.2929439904431,0,384,10,1,35
43.72474348138422,45.712854649172854,62.39706115116392,68.2929439904431,0,320,10,1,36
43.72474348138422,45.712854649172854,62.39706115116392,68.2929439904431,0,320,10,1,37
43.72474348138422,45.712854649172854,62.39706115116392,68.2929439904431,0,320,10,1,38
43.72474348138422,45.712854649172854,62.39706115116392,68.2929439904431,0,320,10,1,39
43.72474348138422,45.712854649172854,62.39706115116392,68.2929439904431,0,128,10,1,40
43.72474348138422,45.712854649172854,62.39706115116392,68.2929439904431,0,128,10,1,41
43.72474348138422,45.712854649172854,62.39706115116392,68.2929439904431,0,128,10,1,42
43.72474348138422,45.712854649172854,62.39706115116392,68.2929439904431,0,128,10,1,43
43.722608896635926,45.710623007439445,62.39706115116392,68.2929439904431,0,128,10,1,44
43.722608896635926,45.710623007439445,62.39706115116392,68.2929439904431,0,128,10,1,45
43.72815344911312,45.712854649172854,62.39706115116392,68.2929439904431,0,192,10,1,46
43.72815344911312,45.712854649172854,62.39706115116392,68.2929439904431,0,192,10,1,47
43.72815344911312,45.71330677024796,62.39706115116392,68.2929439904431,0,192,10,1,48
43.72544557443458,45.71330677024796,62.39706115116392,68.2929439904431,0,320,10,1,49
43.722608896635926,45.710623007439445,62.39706115116392,68.2929439904431,0,320,10,1,50
43.722608896635926,45.710623007439445,62.39706115116392,68.2929439904431,0,320,10,1,51
43.722608896635926,45.710623007439445,62.39706115116392,68.2929439904431,0,320,10,1,52
43.72474348138422,45.712854649172854,62.39706115116392,68.2929439904431,0,320,10,1,53
43.72474348138422,45.712854649172854,62.39706115116392,68.2929439904431,0,320,10,1,54
43.72474348138422,45.712854649172854,62.39706115116392,68.2929439904431,0,320,10,1,55
43.72474348138422,45.71405208218457,62.39706115116392,68.2929439904431,0,320,10,1,56
43.72474348138422,45.71555585487693,62.39706115116392,68.2929439904431,0,320,10,1,57
43.72556972197118,45.71555585487693,62.39706115116392,68.2929439904431,0,320,10,1,58
43.72556972197118,45.713582693263284,62.39706115116392,68.2929439904431,0,320,10,1,59
43.72474348138422,45.712854649172854,62.39706115116392,68.2929439904431,0,320,10,1,60
43.72474348138422,45.712854649172854,62.39706115116392,68.2929439904431,0,320,10,1,61
43.72474348138422,45.712854649172854,62.39706115116392,68.2929439904431,0,320,10,1,62
43.72815344911312,45.716283891329105,62.39706115116392,68.2929439904431,0,320,10,1,63
43.72815344911312,45.716283891329105,62.39706115116392,68.2929439904431,0,320,10,1,64
43.72815344911312,45.716283891329105,62.39706115116392,68.2929439904431,0,320,10,1,65
43.72815344911312,45.716735643692125,62.39706115116392,68.2929439904431,0,448,10,1,66
43.72531711620931,45.712854649172854,62.39706115116392,68.2929439904431,0,448,10,1,67
43.72531711620931,45.71330677024796,62.39706115116392,68.2929439904431,0,448,10,1,68
43.72531711620931,45.71330677024796,62.39706115116392,68.2929439904431,0,448,10,1,69
43.72815344911312,45.71330677024796,62.39706115116392,68.2929439904431,0,448,10,1,70
43.72815344911312,45.712854649172854,62.39706115116392,68.2929439904431,0,384,10,1,71
43.72474348138422,45.712854649172854,62.39706115116392,68.2929439904431,0,384,10,1,72
43.72474348138422,45.712854649172854,62.39706115116392,68.2929439904431,0,384,10,1,73
43.72474348138422,45.712854649172854,62.39706115116392,68.2929439904431,0,384,10,1,74
43.72474348138422,45.712854649172854,62.39706115116392,68.2929439904431,0,384,10,1,75
43.72474348138422,45.712854649172854,62.39706115116392,68.2929439904431,0,448,10,1,76
43.72815344911312,45.716283891329105,62.39706115116392,68.2929439904431,0,448,10,1,77
43.72815344911312,45.712854649172854,62.39706115116392,68.2929439904431,0,448,10,1,78
43.72815344911312,45.712854649172854,62.39706115116392,68.2929439904431,0,448,10,1,79
43.72474348138422,45.712854649172854,62.39706115116392,68.2929439904431,0,448,10,1,80
43.72474348138422,45.710623007439445,62.39706115116392,68.2929439904431,0,320,10,1,81
43.72474348138422,45.710623007439445,62.39706115116392,68.2929439904431,0,320,10,1,82
43.72474348138422,45.710623007439445,62.39706115116392,68.2929439904431,0,320,10,1,83
43.722608896635926,45.710623007439445,62.39706115116392,68.2929439904431,0,320,10,1,84
43.722608896635926,45.710623007439445,62.39706115116392,68.2929439904431,0,320,10,1,85
43.722608896635926,45.710623007439445,62.39706115116392,68.2929439904431,0,256,10,1,86
43.72474348138422,45.712854649172854,62.39706115116392,68.2929439904431,0,256,10,1,87
43.72474348138422,45.712854649172854,62.39706115116392,68.2929439904431,0,256,10,1,88
43.72474348138422,45.712854649172854,62.39706115116392,68.2929439904431,0,256,10,1,89
43.72544557443458,45.712854649172854,62.39706115116392,68.2929439904431,0,0,10,1,90
43.72601869789466,45.710623007439445,62.39706115116392,68.2929439904431,0,0,10,1,91
43.72601869789466,45.710623007439445,62.39706115116392,68.2929439904431,0,0,10,2,93
43.72601869789466,45.710623007439445,8.113653811367199,8.849705746028787,0,256,10,2,94
43.72601869789466,45.710623007439445,8.113653811367199,8.84923060174826,0,256,10,2,95
43.72601869789466,45.710623007439445,8.114089467483105,8.847465200731612,0,256,10,2,96
43.72601869789466,45.710623007439445,8.114450054715068,8.847465200731612,0,256,10,2,97
43.72601869789466,45.710623007439445,8.114450054715068,8.847465200731612,0,256,10,2,98
43.72601869789466,45.710623007439445,8.114525154360225,8.847072040016453,0,256,10,2,99
43.72601869789466,45.710623007439445,8.114525154360225,8.847072040016453,0,256,10,2,100
43.72601869789466,45.710623007439445,8.114525154360225,8.845487806351207,0,384,10,2,101
43.72601869789466,45.710623007439445,8.114525154360225,8.845487806351207,0,384,10,2,102
43.72601869789466,45.710623007439445,8.114525154360225,8.845487806351207,0,384,10,2,103
43.72601869789466,45.710623007439445,8.114525154360225,8.847547084468973,0,384,10,2,104
43.72601869789466,45.710623007439445,8.114525154360225,8.848204603782591,0,384,10,2,105
43.72601869789466,45.710623007439445,8.114525154360225,8.847547084468973,0,384,10,2,106
43.72601869789466,45.710623007439445,8.114525154360225,8.848204603782591,0,384,10,2,107
43.72601869789466,45.710623007439445,8.114525154360225,8.847547084468973,0,384,10,2,108
43.72601869789466,45.710623007439445,8.114089467483105,8.850180923861346,0,384,10,2,109
43.72601869789466,45.710623007439445,8.114089467483105,8.847547084468973,0,384,10,2,110
43.72601869789466,45.710623007439445,8.114089467483105,8.847547084468973,0,448,10,2,111
43.72601869789466,45.710623007439445,8.114525154360225,8.847547084468973,0,448,10,2,112
43.72601869789466,45.710623007439445,8.114525154360225,8.848022162461287,0,448,10,2,113
43.72601869789466,45.710623007439445,8.114525154360225,8.848022162461287,0,448,10,2,114
43.72601869789466,45.710623007439445,8.114525154360225,8.845487806351207,0,448,10,2,115
43.72601869789466,45.710623007439445,8.114525154360225,8.845094691292593,0,320,10,2,116
43.72601869789466,45.710623007439445,8.114885799683199,8.845487806351207,0,320,10,2,117
43.72601869789466,45.710623007439445,8.114089467483105,8.844619778514508,0,320,10,2,118
43.72601869789466,45.710623007439445,8.114885799683199,8.847254477812717,0,320,10,2,119
43.72601869789466,45.710623007439445,8.114525154360225,8.847254477812717,0,320,10,2,120
43.72601869789466,45.710623007439445,8.11532157542268,8.847254477812717,0,448,10,2,121
43.72601869789466,45.710623007439445,8.114885799683199,8.847940308522766,0,448,10,2,122
43.72601869789466,45.710623007439445,8.114885799683199,8.847072040016453,0,448,10,2,123
43.72601869789466,45.710623007439445,8.114885799683199,8.847940308522766,0,448,10,2,124
43.72601869789466,45.710623007439445,8.114525154360225,8.847072040016453,0,448,10,2,125
43.72601869789466,45.710623007439445,8.114525154360225,8.847547084468973,0,320,10,2,126
43.72601869789466,45.710623007439445,8.114525154360225,8.845094691292593,0,320,10,2,127
43.72601869789466,45.710623007439445,8.114525154360225,8.847465200731612,0,320,10,2,128
43.72601869789466,45.710623007439445,8.114525154360225,8.845569637601173,0,320,10,2,129
43.72601869789466,45.710623007439445,8.114885799683199,8.845569637601173,0,320,10,2,130
43.72601869789466,45.710623007439445,8.114885799683199,8.845569637601173,0,384,10,2,131
43.72601869789466,45.710623007439445,8.114089467483105,8.845487806351207,0,384,10,2,132
43.72601869789466,45.710623007439445,8.114089467483105,8.845094691292593,0,384,10,2,133
43.72601869789466,45.710623007439445,8.114450054715068,8.845094691292593,0,384,10,2,134
43.72601869789466,45.710623007439445,8.114525154360225,8.847547084468973,0,128,10,2,135
43.72601869789466,45.710623007439445,8.114525154360225,8.848122713959912,0,128,10,2,136
43.72601869789466,45.710623007439445,8.114525154360225,8.850656135245707,0,64,10,2,137
43.72601869789466,45.710623007439445,8.114525154360225,8.850656135245707,0,64,10,2,138
43.72601869789466,45.710623007439445,8.114960871998356,8.848022162461287,0,64,10,2,139
43.72601869789466,45.710623007439445,8.114525154360225,8.847547084468973,0,64,10,2,140
43.72601869789466,45.710623007439445,8.114525154360225,8.848022162461287,0,64,10,2,141
43.72601869789466,45.710623007439445,8.114525154360225,8.847547084468973,0,192,10,2,142
43.72601869789466,45.710623007439445,8.114525154360225,8.847547084468973,0,192,10,2,143
43.72601869789466,45.710623007439445,8.114525154360225,8.847547084468973,0,448,10,2,144
43.72601869789466,45.710623007439445,8.114525154360225,8.848204603782591,0,448,10,2,145
43.72601869789466,45.710623007439445,8.114525154360225,8.848204603782591,0,256,10,2,146
43.72601869789466,45.710623007439445,8.114525154360225,8.848204603782591,0,256,10,2,147
43.72601869789466,45.710623007439445,8.114525154360225,8.848204603782591,0,256,10,2,148
43.72601869789466,45.710623007439445,8.114089467483105,8.850180923861346,0,256,10,2,149
43.72601869789466,45.710623007439445,8.114525154360225,8.850180923861346,0,256,10,2,150
43.72601869789466,45.710623007439445,8.114089467483105,8.850180923861346,0,320,10,2,151
43.72601869789466,45.710623007439445,8.114089467483105,8.84978763442906,0,320,10,2,152
43.72601869789466,45.710623007439445,8.114089467483105,8.847072040016453,0,320,10,2,153
43.72601869789466,45.710623007439445,8.114089467483105,8.847072040016453,0,320,10,2,154
43.72601869789466,45.710623007439445,8.114450054715068,8.847072040016453,0,320,10,2,155
43.72601869789466,45.710623007439445,8.114164517699173,8.847153869859575,0,320,10,2,156
43.72601869789466,45.710623007439445,8.114450054715068,8.848597857059445,0,320,10,2,157
43.72601869789466,45.710623007439445,8.114885799683199,8.847153869859575,0,320,10,2,158
43.72601869789466,45.710623007439445,8.114885799683199,8.848204603782591,0,320,10,2,159
43.72601869789466,45.710623007439445,8.114525154360225,8.848204603782591,0,320,10,2,160
43.72601869789466,45.710623007439445,8.114525154360225,8.848204603782591,0,448,10,2,161
43.72601869789466,45.710623007439445,8.114525154360225,8.848597857059445,0,448,10,2,162
43.72601869789466,45.710623007439445,8.114450054715068,8.848597857059445,0,448,10,2,163
43.72601869789466,45.710623007439445,8.114089467483105,8.848597857059445,0,448,10,2,164
43.72601869789466,45.710623007439445,8.114089467483105,8.850180923861346,0,448,10,2,165
43.72601869789466,45.710623007439445,8.114089467483105,8.850180923861346,0,320,10,2,166
43.72601869789466,45.710623007439445,8.114525154360225,8.850180923861346,0,320,10,2,167
43.72601869789466,45.710623007439445,8.114525154360225,8.848204603782591,0,320,10,2,168
43.72601869789466,45.710623007439445,8.114525154360225,8.847940308522766,0,320,10,2,169
43.72601869789466,45.710623007439445,8.114525154360225,8.847547084468973,0,320,10,2,170
43.72601869789466,45.710623007439445,8.114885799683199,8.847940308522766,0,320,10,2,171
43.72601869789466,45.710623007439445,8.114525154360225,8.850656135245707,0,448,10,2,172
43.72601869789466,45.710623007439445,8.114525154360225,8.850656135245707,0,448,10,2,173
43.72601869789466,45.710623007439445,8.114525154360225,8.848597857059445,0,448,10,2,174
43.72601869789466,45.710623007439445,8.114525154360225,8.848204603782591,0,448,10,2,175
43.72601869789466,45.710623007439445,8.114525154360225,8.848204603782591,0,448,10,2,176
43.72601869789466,45.710623007439445,8.114525154360225,8.848204603782591,0,448,10,2,177
43.72601869789466,45.710623007439445,8.114525154360225,8.848204603782591,0,448,10,2,178
43.72601869789466,45.710623007439445,8.114525154360225,8.848597857059445,0,448,10,2,179
43.72601869789466,45.710623007439445,8.114089467483105,8.847729524026398,0,448,10,2,180
43.72601869789466,45.710623007439445,8.114525154360225,8.847547084468973,0,448,10,2,181
43.72601869789466,45.710623007439445,8.114525154360225,8.847072040016453,0,320,10,2,182
43.72601869789466,45.710623007439445,8.114525154360225,8.847547084468973,0,320,10,2,183
43.72601869789466,45.710623007439445,8.114525154360225,8.847547084468973,0,320,10,2,184
43.72601869789466,45.710623007439445,8.114525154360225,8.847547084468973,0,320,10,2,185
43.72601869789466,45.710623007439445,8.114525154360225,8.845094691292593,0,64,10,2,186
43.72601869789466,45.710623007439445,8.114525154360225,8.845094691292593,0,0,10,2,187
43.72601869789466,45.710623007439445,8.114525154360225,8.845487806351207,0,0,10,2,188
43.72601869789466,45.710623007439445,8.114525154360225,8.850656135245707,0,0,10,2,189
43.72601869789466,45.710623007439445,8.114525154360225,8.845487806351207,0,256,10,2,190
43.72601869789466,45.710623007439445,8.114525154360225,8.850656135245707,0,384,10,2,191
43.72601869789466,45.710623007439445,8.114525154360225,8.850656135245707,0,384,10,1,194
43.72732720815884,45.71287205970591,8.114525154360225,8.850656135245707,0,384,10,1,195
43.72732720815884,45.71287205970591,8.114525154360225,8.850656135245707,0,384,10,1,196
43.72531711620931,45.712854649172854,8.114525154360225,8.850656135245707,0,448,10,1,197
43.72474348138422,45.712854649172854,8.114525154360225,8.850656135245707,0,448,10,1,198
43.72474348138422,45.712854649172854,8.114525154360225,8.850656135245707,0,448,10,1,199
43.72474348138422,45.712854649172854,8.114525154360225,8.850656135245707,0,448,10,1,200
43.72474348138422,45.712854649172854,8.114525154360225,8.850656135245707,0,256,10,1,201
43.722608896635926,45.710623007439445,8.114525154360225,8.850656135245707,0,256,10,1,202
43.722608896635926,45.710623007439445,8.114525154360225,8.850656135245707,0,256,10,1,203
43.722608896635926,45.710623007439445,8.114525154360225,8.850656135245707,0,256,10,1,204
43.722608896635926,45.710623007439445,8.114525154360225,8.850656135245707,0,256,10,1,205
43.722608896635926,45.710623007439445,8.114525154360225,8.850656135245707,0,320,10,1,206
43.72474348138422,45.712854649172854,8.114525154360225,8.850656135245707,0,320,10,1,207
43.72474348138422,45.712854649172854,8.114525154360225,8.850656135245707,0,320,10,1,208
43.72474348138422,45.712854649172854,8.114525154360225,8.850656135245707,0,320,10,1,209
43.72474348138422,45.712854649172854,8.114525154360225,8.850656135245707,0,320,10,1,210
43.722608896635926,45.710623007439445,8.114525154360225,8.850656135245707,0,448,10,1,211
43.72474348138422,45.710623007439445,8.114525154360225,8.850656135245707,0,448,10,1,212
43.72343534911443,45.71135127968295,8.114525154360225,8.850656135245707,0,448,10,1,213
43.72474348138422,45.712854649172854,8.114525154360225,8.850656135245707,0,448,10,1,214
43.72474348138422,45.712854649172854,8.114525154360225,8.850656135245707,0,448,10,1,215
43.72474348138422,45.712854649172854,8.114525154360225,8.850656135245707,0,448,10,1,216
43.72474348138422,45.712854649172854,8.114525154360225,8.850656135245707,0,448,10,1,217
43.72474348138422,45.712854649172854,8.114525154360225,8.850656135245707,0,448,10,1,218
43.72474348138422,45.712854649172854,8.114525154360225,8.850656135245707,0,448,10,1,219
43.72544557443458,45.712854649172854,8.114525154360225,8.850656135245707,0,448,10,1,220
43.72474348138422,45.71135127968295,8.114525154360225,8.850656135245707,0,448,10,1,221
43.72474348138422,45.71135127968295,8.114525154360225,8.850656135245707,0,320,10,1,222
43.72474348138422,45.712854649172854,8.114525154360225,8.850656135245707,0,320,10,1,223
43.72531711620931,45.712854649172854,8.114525154360225,8.850656135245707,0,320,10,1,224
43.72531711620931,45.712854649172854,8.114525154360225,8.850656135245707,0,320,10,1,225
43.72815344911312,45.712854649172854,8.114525154360225,8.850656135245707,0,320,10,1,226
43.72474348138422,45.712854649172854,8.114525154360225,8.850656135245707,0,256,10,1,227
43.72474348138422,45.712854649172854,8.114525154360225,8.850656135245707,0,256,10,1,228
43.72474348138422,45.712854649172854,8.114525154360225,8.850656135245707,0,256,10,1,229
43.72474348138422,45.716283891329105,8.114525154360225,8.850656135245707,0,256,10,1,230
43.72474348138422,45.716283891329105,8.114525154360225,8.850656135245707,0,256,10,1,231
43.72474348138422,45.716283891329105,8.114525154360225,8.850656135245707,0,384,10,1,232
43.72474348138422,45.712854649172854,8.114525154360225,8.850656135245707,0,384,10,1,233
43.72474348138422,45.712854649172854,8.114525154360225,8.850656135245707,0,384,10,1,234
43.72474348138422,45.712854649172854,8.114525154360225,8.850656135245707,0,384,10,1,235
43.722608896635926,45.710623007439445,8.114525154360225,8.850656135245707,0,384,10,1,236
43.72815344911312,45.712854649172854,8.114525154360225,8.850656135245707,0,448,10,1,237
43.72474348138422,45.712854649172854,8.114525154360225,8.850656135245707,0,448,10,1,238
43.72531711620931,45.71330677024796,8.114525154360225,8.850656135245707,0,448,10,1,239
43.72531711620931,45.71330677024796,8.114525154360225,8.850656135245707,0,448,10,1,240
43.72531711620931,45.71330677024796,8.114525154360225,8.850656135245707,0,192,10,1,241
43.72519224500417,45.71332381753148,8.114525154360225,8.850656135245707,0,192,10,1,242
43.72474348138422,45.712854649172854,8.114525154360225,8.850656135245707,0,192,10,1,243
43.72474348138422,45.712854649172854,8.114525154360225,8.850656135245707,0,192,10,1,244
43.72474348138422,45.712854649172854,8.114525154360225,8.850656135245707,0,192,10,1,245
43.72474348138422,45.712854649172854,8.114525154360225,8.850656135245707,0,192,10,1,246
43.72474348138422,45.712854649172854,8.114525154360225,8.850656135245707,0,64,10,1,247
43.722608896635926,45.71240258159179,8.114525154360225,8.850656135245707,0,64,10,1,248
43.72343534911443,45.71135127968295,8.114525154360225,8.850656135245707,0,64,10,1,249
43.72343534911443,45.71135127968295,8.114525154360225,8.850656135245707,0,320,10,1,250
43.72474348138422,45.71330677024796,8.114525154360225,8.850656135245707,0,384,10,1,251
43.72531711620931,45.71555585487693,8.114525154360225,8.850656135245707,0,384,10,1,252
43.72732720815884,45.71405208218457,8.114525154360225,8.850656135245707,0,384,10,1,253
43.72732720815884,45.71405208218457,8.114525154360225,8.850656135245707,0,384,10,1,254
43.72474348138422,45.712854649172854,8.114525154360225,8.850656135245707,0,384,10,1,255
43.72474348138422,45.712854649172854,8.114525154360225,8.850656135245707,0,384,10,1,0
43.72474348138422,45.712854649172854,8.114525154360225,8.850656135245707,0,384,10,1,1
43.72391720668378,45.712126567655304,8.114525154360225,8.850656135245707,0,384,10,1,2
43.72391720668378,45.712126567655304,8.114525154360225,8.850656135245707,0,384,10,1,3
43.72474348138422,45.712854649172854,8.114525154360225,8.850656135245707,0,384,10,1,4
43.72474348138422,45.712854649172854,8.114525154360225,8.850656135245707,0,384,10,1,5
43.72474348138422,45.712854649172854,8.114525154360225,8.850656135245707,0,256,10,1,6
43.72474348138422,45.712854649172854,8.114525154360225,8.850656135245707,0,256,10,1,7
43.72601869789466,45.712854649172854,8.114525154360225,8.850656135245707,0,256,10,1,8
43.72601869789466,45.712854649172854,8.114525154360225,8.850656135245707,0,256,10,1,9
43.72601869789466,45.710623007439445,8.114525154360225,8.850656135245707,0,256,10,1,10
43.72531711620931,45.710623007439445,8.114525154360225,8.850656135245707,0,320,10,1,11
43.72474348138422,45.710623007439445,8.114525154360225,8.850656135245707,0,320,10,1,12
43.72531711620931,45.712854649172854,8.114525154360225,8.850656135245707,0,320,10,1,13
43.72474348138422,45.712854649172854,8.114525154360225,8.850656135245707,0,320,10,1,14
43.72474348138422,45.712854649172854,8.114525154360225,8.850656135245707,0,320,10,1,15
43.722608896635926,45.710623007439445,8.114525154360225,8.850656135245707,0,384,10,1,16
43.72474348138422,45.710623007439445,8.114525154360225,8.850656135245707,0,384,10,1,17
43.72474348138422,45.710623007439445,8.114525154360225,8.850656135245707,0,384,10,1,18
43.72474348138422,45.712854649172854,8.114525154360225,8.850656135245707,0,384,10,1,19
43.72474348138422,45.712854649172854,8.114525154360225,8.850656135245707,0,384,10,1,20
43.72556972197118,45.713582693263284,8.114525154360225,8.850656135245707,0,448,10,1,21
43.72556972197118,45.71330677024796,8.114525154360225,8.850656135245707,0,448,10,1,22
43.72601869789466,45.713582693263284,8.114525154360225,8.850656135245707,0,448,10,1,23
43.72815344911312,45.71405208218457,8.114525154360225,8.850656135245707,3,448,10,1,24
43.72601869789466,45.716283891329105,8.114525154360225,8.850656135245707,213,448,10,1,25
43.72815344911312,45.716283891329105,8.114525154360225,8.850656135245707,626,320,10,1,26
43.72815344911312,45.716283891329105,8.114525154360225,8.850656135245707,1148,320,10,1,27
43.72815344911312,45.716007738909994,8.114525154360225,8.850656135245707,1734,320,10,1,28
43.7279006245926,45.712854649172854,8.114525154360225,8.850656135245707,2344,320,10,1,29
43.72474348138422,45.712854649172854,8.114525154360225,8.850656135245707,2949,320,10,1,30
43.72474348138422,45.712854649172854,8.114525154360225,8.850656135245707,3528,320,10,1,31
43.72531711620931,45.712854649172854,8.114525154360225,8.850656135245707,3963,320,10,1,32
43.72531711620931,45.712854649172854,8.114525154360225,8.850656135245707,3999,320,10,1,33
43.72531711620931,45.712854649172854,8.114525154360225,8.850656135245707,3999,320,10,1,34
43.72815344911312,45.712854649172854,8.114525154360225,8.850656135245707,3999,64,10,1,35
43.72815344911312,45.712854649172854,8.114525154360225,8.850656135245707,3999,64,10,1,36
43.72815344911312,45.712854649172854,8.114885799683199,8.851049497479442,3999,64,10,2,38
43.72815344911312,45.712854649172854,62.38490641583646,68.28085855620292,3999,64,10,2,39
43.72815344911312,45.712854649172854,62.39585917829874,68.2840481209435,3999,256,10,2,40
43.72815344911312,45.712854649172854,62.39650089246906,68.28535830070298,3999,256,10,2,41
43.72815344911312,45.712854649172854,62.396781021926365,68.28874683945699,3999,256,10,2,42
43.72815344911312,45.712854649172854,62.396781021926365,68.28874683945699,3999,256,10,2,43
43.72815344911312,45.712854649172854,62.396781021926365,68.28874683945699,3999,256,10,2,44
43.72815344911312,45.712854649172854,62.396781021926365,68.28947449569313,3999,0,10,2,45
43.72815344911312,45.712854649172854,62.396781021926365,68.2859733800855,3999,0,10,2,46
43.72815344911312,45.712854649172854,62.39706115116392,68.2929439904431,3999,64,10,2,47
43.72815344911312,45.712854649172854,62.39389118566782,68.28589293403483,3999,64,10,2,48
43.72815344911312,45.712854649172854,62.396781021926365,68.28874683945699,3999,320,10,2,49
43.72815344911312,45.712854649172854,62.396781021926365,68.28874683945699,3999,448,10,2,50
43.72815344911312,45.712854649172854,62.39706115116392,68.28936224682104,3999,448,10,2,51
43.72815344911312,45.712854649172854,62.39744589584669,68.28947449569313,3999,448,10,2,52
43.72815344911312,45.712854649172854,62.39744589584669,68.28947449569313,3999,448,10,2,53
43.72815344911312,45.712854649172854,62.39706115116392,68.28936224682104,3999,448,10,2,54
43.72815344911312,45.712854649172854,62.39706115116392,68.28936224682104,3999,448,10,2,55
43.72815344911312,45.712854649172854,62.39706115116392,68.29017036060974,3999,384,10,2,56
43.72815344911312,45.712854649172854,62.39706115116392,68.29017036060974,3999,384,10,2,57
43.72815344911312,45.712854649172854,62.39706115116392,68.28936224682104,3999,384,10,2,58
43.72815344911312,45.712854649172854,62.396781021926365,68.28936224682104,3999,384,10,2,59
43.72815344911312,45.712854649172854,62.39706115116392,68.28936224682104,3999,384,10,2,60
43.72815344911312,45.712854649172854,62.39706115116392,68.28947449569313,3999,448,10,2,61
43.72815344911312,45.712854649172854,62.39706115116392,68.2929439904431,3999,448,10,2,62
43.72815344911312,45.712854649172854,62.39706115116392,68.2929439904431,3999,448,10,2,63
43.72815344911312,45.712854649172854,62.39958899916619,68.28936224682104,3999,448,10,2,64
43.72815344911312,45.712854649172854,62.39706115116392,68.28874683945699,3999,448,10,2,65
43.72815344911312,45.712854649172854,62.39706115116392,68.28874683945699,3999,384,10,2,66
43.72815344911312,45.712854649172854,62.39706115116392,68.28936224682104,3999,384,10,2,67
43.72815344911312,45.712854649172854,62.39706115116392,68.28936224682104,3999,384,10,2,68
43.72815344911312,45.712854649172854,62.39706115116392,68.28936224682104,3999,384,10,2,69
43.72815344911312,45.712854649172854,62.39706115116392,68.28936224682104,3999,384,10,2,70
43.72815344911312,45.712854649172854,62.400616041942335,68.2929439904431,3999,384,10,2,71
43.72815344911312,45.712854649172854,62.400616041942335,68.2929439904431,3999,384,10,2,72
43.72815344911312,45.712854649172854,62.400616041942335,68.2929439904431,3999,384,10,2,73
43.72815344911312,45.712854649172854,62.400616041942335,68.2929439904431,3999,384,10,2,74
43.72815344911312,45.712854649172854,62.39742295311427,68.29005773792956,3999,384,10,2,75
43.72815344911312,45.712854649172854,62.39742295311427,68.29005773792956,3999,320,10,2,76
43.72815344911312,45.712854649172854,62.4008962630517,68.2929439904431,3999,320,10,2,77
43.72815344911312,45.712854649172854,62.4008962630517,68.2929439904431,3999,320,10,2,78
43.72815344911312,45.712854649172854,62.400616041942335,68.2929439904431,3999,320,10,2,79
43.72815344911312,45.712854649172854,62.39986946096611,68.2929439904431,3999,320,10,2,80
43.72815344911312,45.712854649172854,62.39986946096611,68.2929439904431,3999,448,10,2,81
43.72815344911312,45.712854649172854,62.39706115116392,68.28936224682104,3999,448,10,2,82
43.72815344911312,45.712854649172854,62.39669935279909,68.28589293403483,3999,448,10,2,83
43.72815344911312,45.712854649172854,62.396781021926365,68.28874683945699,3999,448,10,2,84
43.72815344911312,45.712854649172854,62.396781021926365,68.28874683945699,3999,448,10,2,85
43.72815344911312,45.712854649172854,62.39706115116392,68.28936224682104,3999,448,10,2,86
43.72815344911312,45.712854649172854,62.39706115116392,68.28936224682104,3999,320,10,2,87
43.72815344911312,45.712854649172854,62.39706115116392,68.28936224682104,3999,320,10,2,88
43.72815344911312,45.712854649172854,62.396781021926365,68.28874683945699,3999,320,10,2,89
43.72815344911312,45.712854649172854,62.39706115116392,68.28936224682104,3999,320,10,2,90
43.72815344911312,45.712854649172854,62.396781021926365,68.28874683945699,3999,64,10,2,91
43.72815344911312,45.712854649172854,62.39706115116392,68.28658847150624,3999,0,10,2,92
43.72815344911312,45.712854649172854,62.39706115116392,68.28658847150624,3999,0,10,2,93
43.72815344911312,45.712854649172854,62.39706115116392,68.28658847150624,3999,0,10,2,94
43.72815344911312,45.712854649172854,62.39706115116392,68.28947449569313,3999,0,10,2,95
43.72815344911312,45.712854649172854,62.39706115116392,68.28947449569313,3999,0,10,2,96
43.72815344911312,45.712854649172854,62.39669935279909,68.28947449569313,3999,192,10,2,97
43.72815344911312,45.712854649172854,62.39706115116392,68.28658847150624,3999,192,10,2,98
43.72815344911312,45.712854649172854,62.39706115116392,68.28658847150624,3999,192,10,2,99
43.72815344911312,45.712854649172854,62.39706115116392,68.28874683945699,3999,320,10,2,100
43.72815344911312,45.712854649172854,62.396781021926365,68.28874683945699,3999,320,10,2,101
43.72815344911312,45.712854649172854,62.396781021926365,68.28874683945699,3999,320,10,2,102
43.72815344911312,45.712854649172854,62.396781021926365,68.28874683945699,3999,320,10,2,103
43.72815344911312,45.712854649172854,62.39669935279909,68.28936224682104,3999,320,10,2,104
43.72815344911312,45.712854649172854,62.39669935279909,68.28936224682104,3999,320,10,2,105
43.72815344911312,45.712854649172854,62.396781021926365,68.28947449569313,3999,384,10,2,106
43.72815344911312,45.712854649172854,62.39706115116392,68.2929439904431,3999,384,10,2,107
43.72815344911312,45.712854649172854,62.39706115116392,68.2929439904431,3999,384,10,2,108
43.72815344911312,45.712854649172854,62.39706115116392,68.29017036060974,3999,384,10,2,109
43.72815344911312,45.712854649172854,62.39706115116392,68.29017036060974,3999,384,10,2,110
43.72815344911312,45.712854649172854,62.39669935279909,68.28874683945699,3999,384,10,2,111
43.72815344911312,45.712854649172854,62.39742295311427,68.2929439904431,3999,384,10,2,112
43.72815344911312,45.712854649172854,62.39706115116392,68.29017036060974,3999,384,10,2,113
43.72815344911312,45.712854649172854,62.39986946096611,68.29017036060974,3999,384,10,2,114
43.72815344911312,45.712854649172854,62.39986946096611,68.29017036060974,3999,384,10,2,115
43.72815344911312,45.712854649172854,62.39986946096611,68.29005773792956,3999,448,10,2,116
43.72815344911312,45.712854649172854,62.39742295311427,68.29017036060974,3999,448,10,2,117
43.72815344911312,45.712854649172854,62.39742295311427,68.29005773792956,3999,448,10,2,118
43.72815344911312,45.712854649172854,62.39706115116392,68.28936224682104,3999,448,10,2,119
43.72815344911312,45.712854649172854,62.39706115116392,68.28936224682104,3999,448,10,2,120
43.72815344911312,45.712854649172854,62.39706115116392,68.28936224682104,3999,320,10,2,121
43.72815344911312,45.712854649172854,62.39706115116392,68.28936224682104,3999,320,10,2,122
43.72815344911312,45.712854649172854,62.39706115116392,68.28936224682104,3999,320,10,2,123
43.72815344911312,45.712854649172854,62.39706115116392,68.28936224682104,3999,320,10,2,124
43.72815344911312,45.712854649172854,62.39706115116392,68.28936224682104,3999,320,10,2,125
43.72815344911312,45.712854649172854,62.39706115116392,68.28936224682104,3999,320,10,2,126
43.72815344911312,45.712854649172854,62.39706115116392,68.28936224682104,3999,320,10,2,127
43.72815344911312,45.712854649172854,62.39706115116392,68.28936224682104,3999,320,10,2,128
43.72815344911312,45.712854649172854,62.39706115116392,68.29017036060974,3999,320,10,2,129
43.72815344911312,45.712854649172854,62.400616041942335,68.2929439904431,3999,320,10,2,130
43.72815344911312,45.712854649172854,62.400616041942335,68.2929439904431,3999,320,10,2,131
43.72815344911312,45.712854649172854,62.400616041942335,68.2929439904431,3999,320,10,2,132
43.72815344911312,45.712854649172854,62.400616041942335,68.2929439904431,3999,320,10,2,133
43.72815344911312,45.712854649172854,62.40025390300713,68.28874683945699,3999,320,10,2,134
43.72815344911312,45.712854649172854,62.40025390300713,68.2929439904431,3999,320,10,2,135
43.72815344911312,45.712854649172854,62.39744589584669,68.28947449569313,3999,320,10,2,136
43.72815344911312,45.712854649172854,62.39744589584669,68.28947449569313,5910,448,10,1,139
43.72732720815884,45.71405208218457,62.39744589584669,68.28947449569313,5910,192,10,1,140
43.72732720815884,45.71555585487693,62.39744589584669,68.28947449569313,3999,192,10,1,141
43.72601869789466,45.716283891329105,62.39744589584669,68.28947449569313,3999,0,10,1,142
43.72815344911312,45.716283891329105,62.39744589584669,68.28947449569313,3999,0,10,1,143
43.72815344911312,45.713582693263284,62.39744589584669,68.28947449569313,3999,0,10,1,144
43.72815344911312,45.712854649172854,62.39744589584669,68.28947449569313,3999,256,10,1,145
43.72815344911312,45.712854649172854,62.39744589584669,68.28947449569313,3999,256,10,1,146
43.72815344911312,45.712854649172854,62.39744589584669,68.28947449569313,3999,320,10,1,147
43.72601869789466,45.712854649172854,62.39744589584669,68.28947449569313,3999,320,10,1,148
43.72732720815884,45.712854649172854,62.39744589584669,68.28947449569313,3999,320,10,1,149
43.72601869789466,45.712854649172854,62.39744589584669,68.28947449569313,3999,320,10,1,150
43.72474348138422,45.712854649172854,62.39744589584669,68.28947449569313,3999,320,10,1,151
43.72474348138422,45.712854649172854,62.39744589584669,68.28947449569313,3999,448,10,1,152
43.72474348138422,45.712854649172854,62.39744589584669,68.28947449569313,3999,448,10,1,153
43.72474348138422,45.712854649172854,62.39744589584669,68.28947449569313,3999,448,10,1,154
43.72474348138422,45.712854649172854,62.39744589584669,68.28947449569313,3999,448,10,1,155
43.72474348138422,45.712854649172854,62.39744589584669,68.28947449569313,3999,448,10,1,156
43.72474348138422,45.712854649172854,62.39744589584669,68.28947449569313,3999,384,10,1,157
43.72474348138422,45.712854649172854,62.39744589584669,68.28947449569313,3999,384,10,1,158
43.72556972197118,45.712854649172854,62.39744589584669,68.28947449569313,3999,384,10,1,159
43.72815344911312,45.712854649172854,62.39744589584669,68.28947449569313,3999,384,10,1,160
43.72815344911312,45.712854649172854,62.39744589584669,68.28947449569313,3999,128,10,1,161
43.72601869789466,45.712854649172854,62.39744589584669,68.28947449569313,3999,0,10,1,162
43.72531711620931,45.710623007439445,62.39744589584669,68.28947449569313,3999,0,10,1,163
43.72531711620931,45.710623007439445,62.39744589584669,68.28947449569313,3999,0,10,1,164
43.72732720815884,45.71330677024796,62.39744589584669,68.28947449569313,3999,0,10,1,165
43.72732720815884,45.71330677024796,62.39744589584669,68.28947449569313,3999,256,10,1,166
43.72601869789466,45.71330677024796,62.39744589584669,68.28947449569313,3999,320,10,1,167
43.72474348138422,45.712854649172854,62.39744589584669,68.28947449569313,3999,320,10,1,168
43.72474348138422,45.712854649172854,62.39744589584669,68.28947449569313,3999,320,10,1,169
43.72474348138422,45.712854649172854,62.39744589584669,68.28947449569313,3999,320,10,1,170
43.72544557443458,45.712854649172854,62.39744589584669,68.28947449569313,3999,384,10,1,171
43.72544557443458,45.712854649172854,62.39744589584669,68.28947449569313,3999,384,10,1,172
43.72544557443458,45.71330677024796,62.39744589584669,68.28947449569313,3999,384,10,1,173
43.72556972197118,45.71330677024796,62.39744589584669,68.28947449569313,3999,384,10,1,174
43.72556972197118,45.712854649172854,62.39744589584669,68.28947449569313,3999,384,10,1,175
43.72474348138422,45.712854649172854,62.39744589584669,68.28947449569313,3999,256,10,1,176
43.72474348138422,45.712854649172854,62.39744589584669,68.28947449569313,3999,256,10,1,177
43.72474348138422,45.712854649172854,62.39744589584669,68.28947449569313,3999,256,10,1,178
43.72531711620931,45.71330677024796,62.39744589584669,68.28947449569313,3999,256,10,1,179
43.72531711620931,45.71330677024796,62.39744589584669,68.28947449569313,3999,256,10,1,180
43.72531711620931,45.71405208218457,62.39744589584669,68.28947449569313,3999,256,10,1,181
43.72601869789466,45.71553854300556,62.39744589584669,68.28947449569313,3999,256,10,1,182
43.72601869789466,45.71555585487693,62.39744589584669,68.28947449569313,3999,256,10,1,183
43.72601869789466,45.71555585487693,62.39744589584669,68.28947449569313,3999,256,10,1,184
43.72601869789466,45.71405208218457,62.39744589584669,68.28947449569313,3999,256,10,1,185
43.72601869789466,45.71405208218457,62.39744589584669,68.28947449569313,3999,256,10,1,186
43.72815344911312,45.716283891329105,62.39744589584669,68.28947449569313,3999,384,10,1,187
43.72815344911312,45.716283891329105,62.39744589584669,68.28947449569313,3999,384,10,1,188
43.72531711620931,45.71330677024796,62.39744589584669,68.28947449569313,3999,384,10,1,189
43.72531711620931,45.710623007439445,62.39744589584669,68.28947449569313,3999,384,10,1,190
43.72474348138422,45.710623007439445,62.39744589584669,68.28947449569313,3999,384,10,1,191
43.72474348138422,45.712854649172854,62.39744589584669,68.28947449569313,3999,384,10,1,192
43.72474348138422,45.716283891329105,62.39744589584669,68.28947449569313,3999,384,10,1,193
43.72815344911312,45.716283891329105,62.39744589584669,68.28947449569313,3999,384,10,1,194
43.72474348138422,45.71555585487693,62.39744589584669,68.28947449569313,3999,384,10,1,195
43.722608896635926,45.71405208218457,62.39744589584669,68.28947449569313,3999,384,10,1,196
43.722608896635926,45.71405208218457,62.39744589584669,68.28947449569313,3999,256,10,1,197
43.722608896635926,45.71405208218457,62.39744589584669,68.28947449569313,3999,256,10,1,198
43.72474348138422,45.712854649172854,62.39744589584669,68.28947449569313,3999,256,10,1,199
43.72601869789466,45.712854649172854,62.39744589584669,68.28947449569313,3999,256,10,1,200
43.72601869789466,45.71405208218457,62.39744589584669,68.28947449569313,3999,256,10,1,201
43.72601869789466,45.71405208218457,62.39744589584669,68.28947449569313,3999,384,10,1,202
43.72474348138422,45.712854649172854,62.39744589584669,68.28947449569313,3999,384,10,1,203
43.72474348138422,45.712854649172854,62.39744589584669,68.28947449569313,3999,384,10,1,204
43.72531711620931,45.71330677024796,62.39744589584669,68.28947449569313,3999,384,10,1,205
43.72815344911312,45.716283891329105,62.39744589584669,68.28947449569313,3999,384,10,1,206
43.72531711620931,45.71330677024796,62.39744589584669,68.28947449569313,3999,320,10,1,207
43.722608896635926,45.710623007439445,62.39744589584669,68.28947449569313,3999,320,10,1,208
43.722608896635926,45.710623007439445,62.39744589584669,68.28947449569313,3999,320,10,1,209
43.722608896635926,45.710623007439445,62.39744589584669,68.28947449569313,3999,320,10,1,210
43.72474348138422,45.712854649172854,62.39744589584669,68.28947449569313,3999,64,10,1,211
43.72474348138422,45.712854649172854,62.39744589584669,68.28947449569313,3999,64,10,1,212
43.72474348138422,45.712854649172854,62.39744589584669,68.28947449569313,3999,192,10,1,213
43.72474348138422,45.710623007439445,62.39744589584669,68.28947449569313,3999,192,10,1,214
43.72343534911443,45.71135127968295,62.39744589584669,68.28947449569313,3999,320,10,1,215
43.72343534911443,45.71135127968295,62.39744589584669,68.28947449569313,3999,320,10,1,216
43.72343534911443,45.71135127968295,62.39744589584669,68.28947449569313,3999,320,10,1,217
43.72531711620931,45.712854649172854,62.39744589584669,68.28947449569313,3999,320,10,1,218
43.72531711620931,45.712854649172854,62.39744589584669,68.28947449569313,3999,320,10,1,219
43.72732720815884,45.71330677024796,62.39744589584669,68.28947449569313,3999,320,10,1,220
43.72732720815884,45.712854649172854,62.39744589584669,68.28947449569313,3999,320,10,1,221
43.72474348138422,45.712854649172854,62.39744589584669,68.28947449569313,3999,256,10,1,222
43.72474348138422,45.712854649172854,62.39744589584669,68.28947449569313,3999,256,10,1,223
43.72519224500417,45.712854649172854,62.39744589584669,68.28947449569313,3999,256,10,1,224
43.72519224500417,45.710623007439445,62.39744589584669,68.28947449569313,3999,256,10,1,225
43.72601869789466,45.710623007439445,62.39744589584669,68.28947449569313,3999,256,10,1,226
43.72474348138422,45.710623007439445,62.39744589584669,68.28947449569313,3999,448,10,1,227
43.72474348138422,45.712854649172854,62.39744589584669,68.28947449569313,3999,448,10,1,228
43.72474348138422,45.712854649172854,62.39744589584669,68.28947449569313,3999,448,10,1,229
43.72474348138422,45.712854649172854,62.39744589584669,68.28947449569313,3999,448,10,1,230
43.722608896635926,45.71330677024796,62.39744589584669,68.28947449569313,3999,448,10,1,231
43.72556972197118,45.713582693263284,62.39744589584669,68.28947449569313,3999,320,10,1,232
43.72474348138422,45.71330677024796,62.39744589584669,68.28947449569313,3999,320,10,1,233
43.72556972197118,45.712854649172854,62.39744589584669,68.28947449569313,3999,320,10,1,234
43.72474348138422,45.710623007439445,62.39744589584669,68.28947449569313,3999,320,10,1,235
43.722608896635926,45.710623007439445,62.39744589584669,68.28947449569313,3999,320,10,1,236
43.722608896635926,45.710623007439445,62.39744589584669,68.28947449569313,3999,256,10,1,237
43.722608896635926,45.710623007439445,62.39706115116392,68.28947449569313,3999,256,10,2,239
43.722608896635926,45.710623007439445,8.114089467483105,8.850180923861346,3999,256,10,2,240
43.722608896635926,45.710623007439445,8.114089467483105,8.846779465141768,3999,256,10,2,241
43.722608896635926,45.710623007439445,8.114089467483105,8.845012830252044,3999,320,10,2,242
43.722608896635926,45.710623007439445,8.114089467483105,8.845012830252044,3999,320,10,2,243
43.722608896635926,45.710623007439445,8.114089467483105,8.847465200731612,3999,320,10,2,244
43.722608896635926,45.710623007439445,8.114089467483105,8.847465200731612,3999,320,10,2,245
43.722608896635926,45.710623007439445,8.114450054715068,8.847072040016453,3999,320,10,2,246
43.722608896635926,45.710623007439445,8.114450054715068,8.845094691292593,3999,448,10,2,247
43.722608896635926,45.710623007439445,8.114525154360225,8.845094691292593,3999,448,10,2,248
43.722608896635926,45.710623007439445,8.114525154360225,8.845094691292593,3999,448,10,2,249
43.722608896635926,45.710623007439445,8.114525154360225,8.847547084468973,3999,448,10,2,250
43.722608896635926,45.710623007439445,8.114525154360225,8.847729524026398,3999,448,10,2,251
43.722608896635926,45.710623007439445,8.114450054715068,8.847729524026398,3999,448,10,2,252
43.722608896635926,45.710623007439445,8.117175819604185,8.848204603782591,3999,384,10,2,253
43.722608896635926,45.710623007439445,8.114450054715068,8.847072040016453,3999,384,10,2,254
43.722608896635926,45.710623007439445,8.114450054715068,8.850180923861346,3999,384,10,2,255
43.722608896635926,45.710623007439445,8.114450054715068,8.847072040016453,3999,128,10,2,0
43.722608896635926,45.710623007439445,8.114525154360225,8.847547084468973,3999,128,10,2,1
43.722608896635926,45.710623007439445,8.114525154360225,8.847547084468973,3999,0,10,2,2
43.722608896635926,45.710623007439445,8.114525154360225,8.847547084468973,3999,0,10,2,3
43.722608896635926,45.710623007439445,8.114089467483105,8.847547084468973,3999,256,10,2,4
43.722608896635926,45.710623007439445,8.114089467483105,8.845094691292593,3999,256,10,2,5
43.722608896635926,45.710623007439445,8.114525154360225,8.845487806351207,3999,320,10,2,6
43.722608896635926,45.710623007439445,8.114885799683199,8.845487806351207,3999,320,10,2,7
43.722608896635926,45.710623007439445,8.114885799683199,8.845487806351207,3999,320,10,2,8
43.722608896635926,45.710623007439445,8.114525154360225,8.845487806351207,3999,320,10,2,9
43.722608896635926,45.710623007439445,8.114525154360225,8.848122713959912,3999,320,10,2,10
43.722608896635926,45.710623007439445,8.114525154360225,8.848122713959912,3999,320,10,2,11
43.722608896635926,45.710623007439445,8.114525154360225,8.850262782459684,3999,320,10,2,12
43.722608896635926,45.710623007439445,8.114525154360225,8.850262782459684,3999,320,10,2,13
43.722608896635926,45.710623007439445,8.114450054715068,8.850180923861346,3999,320,10,2,14
43.722608896635926,45.710623007439445,8.114450054715068,8.850180923861346,3999,320,10,2,15
43.722608896635926,45.710623007439445,8.114525154360225,8.848122713959912,3999,384,10,2,16
43.722608896635926,45.710623007439445,8.114525154360225,8.847547084468973,3999,384,10,2,17
43.722608896635926,45.710623007439445,8.114525154360225,8.847547084468973,3999,384,10,2,18
43.722608896635926,45.710623007439445,8.114525154360225,8.845094691292593,3999,384,10,2,19
43.722608896635926,45.710623007439445,8.114525154360225,8.845094691292593,3999,384,10,2,20
43.722608896635926,45.710623007439445,8.114450054715068,8.845094691292593,3999,384,10,2,21
43.722608896635926,45.710623007439445,8.114450054715068,8.845094691292593,3999,384,10,2,22
43.722608896635926,45.710623007439445,8.114525154360225,8.845094691292593,3999,384,10,2,23
43.722608896635926,45.710623007439445,8.114525154360225,8.845094691292593,3999,384,10,2,24
43.722608896635926,45.710623007439445,8.114525154360225,8.848122713959912,3999,384,10,2,25
43.722608896635926,45.710623007439445,8.117007019686552,8.850180923861346,3999,256,10,2,26
43.722608896635926,45.710623007439445,8.114525154360225,8.850656135245707,3999,256,10,2,27
43.722608896635926,45.710623007439445,8.114525154360225,8.850656135245707,3999,256,10,2,28
43.722608896635926,45.710623007439445,8.114525154360225,8.848204603782591,3999,256,10,2,29
43.722608896635926,45.710623007439445,8.114525154360225,8.847153869859575,3999,256,10,2,30
43.722608896635926,45.710623007439445,8.114525154360225,8.845094691292593,3999,256,10,2,31
43.722608896635926,45.710623007439445,8.114525154360225,8.845094691292593,3999,256,10,2,32
43.722608896635926,45.710623007439445,8.114525154360225,8.845094691292593,3999,256,10,2,33
43.722608896635926,45.710623007439445,8.114525154360225,8.845094691292593,3999,256,10,2,34
43.722608896635926,45.710623007439445,8.114525154360225,8.845094691292593,3999,256,10,2,35
43.722608896635926,45.710623007439445,8.114450054715068,8.845012830252044,3999,256,10,2,36
43.722608896635926,45.710623007439445,8.114450054715068,8.845012830252044,3999,448,10,2,37
43.722608896635926,45.710623007439445,8.114525154360225,8.845094691292593,3999,448,10,2,38
43.722608896635926,45.710623007439445,8.114525154360225,8.845094691292593,3999,448,10,2,39
43.722608896635926,45.710623007439445,8.114525154360225,8.845094691292593,3999,448,10,2,40
43.722608896635926,45.710623007439445,8.114450054715068,8.845012830252044,3999,448,10,2,41
43.722608896635926,45.710623007439445,8.114450054715068,8.845012830252044,3999,384,10,2,42
43.722608896635926,45.710623007439445,8.114525154360225,8.845094691292593,3999,384,10,2,43
43.722608896635926,45.710623007439445,8.114525154360225,8.847547084468973,3999,384,10,2,44
43.722608896635926,45.710623007439445,8.114525154360225,8.847547084468973,3999,384,10,2,45
43.722608896635926,45.710623007439445,8.114525154360225,8.845094691292593,3999,384,10,2,46
43.722608896635926,45.710623007439445,8.114525154360225,8.845094691292593,3999,256,10,2,47
43.722608896635926,45.710623007439445,8.114885799683199,8.845487806351207,3999,256,10,2,48
43.722608896635926,45.710623007439445,8.114885799683199,8.845487806351207,3999,256,10,2,49
43.722608896635926,45.710623007439445,8.114525154360225,8.845094691292593,3999,256,10,2,50
43.722608896635926,45.710623007439445,8.114525154360225,8.845094691292593,3999,128,10,2,51
43.722608896635926,45.710623007439445,8.114525154360225,8.845094691292593,3999,128,10,2,52
43.722608896635926,45.710623007439445,8.114525154360225,8.845094691292593,3999,128,10,2,53
43.722608896635926,45.710623007439445,8.114885799683199,8.845094691292593,3999,128,10,2,54
43.722608896635926,45.710623007439445,8.117367775314579,8.845487806351207,3999,256,10,2,55
43.722608896635926,45.710623007439445,8.117367775314579,8.845094691292593,3999,256,10,2,56
43.722608896635926,45.710623007439445,8.114525154360225,8.845487806351207,3999,256,10,2,57
43.722608896635926,45.710623007439445,8.114525154360225,8.847547084468973,3999,256,10,2,58
43.722608896635926,45.710623007439445,8.114525154360225,8.847547084468973,3999,256,10,2,59
43.722608896635926,45.710623007439445,8.114525154360225,8.847547084468973,3999,256,10,2,60
43.722608896635926,45.710623007439445,8.114525154360225,8.845094691292593,3999,384,10,2,61
43.722608896635926,45.710623007439445,8.114525154360225,8.845094691292593,3999,384,10,2,62
43.722608896635926,45.710623007439445,8.114525154360225,8.845094691292593,3999,384,10,2,63
43.722608896635926,45.710623007439445,8.114525154360225,8.845094691292593,3999,384,10,2,64
43.722608896635926,45.710623007439445,8.114450054715068,8.845012830252044,3999,384,10,2,65
43.722608896635926,45.710623007439445,8.114450054715068,8.845012830252044,3999,320,10,2,66
43.722608896635926,45.710623007439445,8.114525154360225,8.845094691292593,3999,320,10,2,67
43.722608896635926,45.710623007439445,8.114885799683199,8.845094691292593,3999,320,10,2,68
43.722608896635926,45.710623007439445,8.114885799683199,8.844619778514508,3999,320,10,2,69
43.722608896635926,45.710623007439445,8.114525154360225,8.844619778514508,3999,320,10,2,70
43.722608896635926,45.710623007439445,8.114525154360225,8.845094691292593,3999,448,10,2,71
43.722608896635926,45.710623007439445,8.114525154360225,8.845094691292593,3999,448,10,2,72
43.722608896635926,45.710623007439445,8.114525154360225,8.845094691292593,3999,448,10,2,73
43.722608896635926,45.710623007439445,8.114525154360225,8.845094691292593,3999,448,10,2,74
43.722608896635926,45.710623007439445,8.114525154360225,8.845094691292593,3999,448,10,2,75
43.722608896635926,45.710623007439445,8.114525154360225,8.845094691292593,3999,448,10,2,76
43.722608896635926,45.710623007439445,8.114525154360225,8.845094691292593,3999,256,10,2,77
43.722608896635926,45.710623007439445,8.114525154360225,8.847940308522766,3999,256,10,2,78
43.722608896635926,45.710623007439445,8.114525154360225,8.847940308522766,3999,256,10,2,79
43.722608896635926,45.710623007439445,8.114525154360225,8.847940308522766,3999,256,10,2,80
43.722608896635926,45.710623007439445,8.114525154360225,8.847940308522766,3999,256,10,2,81
43.72391720668378,45.710623007439445,8.114525154360225,8.847940308522766,5910,448,10,1,84
43.72601869789466,45.712126567655304,8.114525154360225,8.847940308522766,5910,448,10,1,85
43.72732720815884,45.71555585487693,8.114525154360225,8.847940308522766,3999,384,10,1,86
43.7279006245926,45.716007738909994,8.114525154360225,8.847940308522766,3999,384,10,1,87
43.7279006245926,45.716007738909994,8.114525154360225,8.847940308522766,3999,384,10,1,88
43.72474348138422,45.712854649172854,8.114525154360225,8.847940308522766,3999,384,10,1,89
43.72474348138422,45.712854649172854,8.114525154360225,8.847940308522766,3999,384,10,1,90
43.72614319752096,45.712854649172854,8.114525154360225,8.847940308522766,3999,384,10,1,91
43.72614319752096,45.71135127968295,8.114525154360225,8.847940308522766,3999,384,10,1,92
43.72614319752096,45.71135127968295,8.114525154360225,8.847940308522766,3999,384,10,1,93
43.72474348138422,45.712854649172854,8.114525154360225,8.847940308522766,3999,384,10,1,94
43.72732720815884,45.712854649172854,8.114525154360225,8.847940308522766,3999,384,10,1,95
43.72474348138422,45.712854649172854,8.114525154360225,8.847940308522766,3999,384,10,1,96
43.722608896635926,45.710623007439445,8.114525154360225,8.847940308522766,3999,448,10,1,97
43.722608896635926,45.710623007439445,8.114525154360225,8.847940308522766,3999,448,10,1,98
43.722608896635926,45.710623007439445,8.114525154360225,8.847940308522766,3999,448,10,1,99
43.72815344911312,45.712854649172854,8.114525154360225,8.847940308522766,3999,448,10,1,100
43.72815344911312,45.716283891329105,8.114525154360225,8.847940308522766,3999,448,10,1,101
43.72815344911312,45.716283891329105,8.114525154360225,8.847940308522766,3999,384,10,1,102
43.72815344911312,45.716283891329105,8.114525154360225,8.847940308522766,3999,384,10,1,103
43.72601869789466,45.71405208218457,8.114525154360225,8.847940308522766,3999,384,10,1,104
43.72474348138422,45.712854649172854,8.114525154360225,8.847940308522766,3999,384,10,1,105
43.72474348138422,45.712854649172854,8.114525154360225,8.847940308522766,3999,384,10,1,106
43.72474348138422,45.712854649172854,8.114525154360225,8.847940308522766,3999,384,10,1,107
43.72745183317581,45.71330677024796,8.114525154360225,8.847940308522766,3999,384,10,1,108
43.72474348138422,45.712854649172854,8.114525154360225,8.847940308522766,3999,384,10,1,109
43.72474348138422,45.71330677024796,8.114525154360225,8.847940308522766,3999,384,10,1,110
43.72474348138422,45.712854649172854,8.114525154360225,8.847940308522766,3999,384,10,1,111
43.722608896635926,45.71330677024796,8.114525154360225,8.847940308522766,3999,256,10,1,112
43.72474348138422,45.712854649172854,8.114525154360225,8.847940308522766,3999,256,10,1,113
43.72474348138422,45.71330677024796,8.114525154360225,8.847940308522766,3999,256,10,1,114
43.72544557443458,45.712854649172854,8.114525154360225,8.847940308522766,3999,256,10,1,115
43.72815344911312,45.716283891329105,8.114525154360225,8.847940308522766,3999,192,10,1,116
43.72815344911312,45.712854649172854,8.114525154360225,8.847940308522766,3999,192,10,1,117
43.72815344911312,45.712854649172854,8.114525154360225,8.847940308522766,3999,192,10,1,118
43.72614319752096,45.71135127968295,8.114525154360225,8.847940308522766,3999,192,10,1,119
43.72614319752096,45.71135127968295,8.114525154360225,8.847940308522766,3999,192,10,1,120
43.72614319752096,45.71135127968295,8.114525154360225,8.847940308522766,3999,192,10,1,121
43.72815344911312,45.712854649172854,8.114525154360225,8.847940308522766,3999,192,10,1,122
43.72815344911312,45.712854649172854,8.114525154360225,8.847940308522766,3999,0,10,1,123
43.72815344911312,45.712854649172854,8.114525154360225,8.847940308522766,3999,0,10,1,124
43.72474348138422,45.712854649172854,8.114525154360225,8.847940308522766,3999,256,10,1,125
43.72474348138422,45.712854649172854,8.114525154360225,8.847940308522766,3999,448,10,1,126
43.722608896635926,45.710623007439445,8.114525154360225,8.847940308522766,3999,448,10,1,127
43.722608896635926,45.710623007439445,8.114525154360225,8.847940308522766,3999,448,10,1,128
43.72732720815884,45.712854649172854,8.114525154360225,8.847940308522766,3999,448,10,1,129
43.72732720815884,45.71555585487693,8.114525154360225,8.847940308522766,3999,448,10,1,130
43.72815344911312,45.712854649172854,8.114525154360225,8.847940308522766,3999,448,10,1,131
43.72815344911312,45.712854649172854,8.114525154360225,8.847940308522766,3999,256,10,1,132
43.72815344911312,45.712854649172854,8.114525154360225,8.847940308522766,3999,256,10,1,133
43.72556972197118,45.71330677024796,8.114525154360225,8.847940308522766,3999,256,10,1,134
43.72556972197118,45.713582693263284,8.114525154360225,8.847940308522766,3999,256,10,1,135
43.72732720815884,45.71405208218457,8.114525154360225,8.847940308522766,3999,256,10,1,136
43.72732720815884,45.71405208218457,8.114525154360225,8.847940308522766,3999,384,10,1,137
43.72732720815884,45.71405208218457,8.114525154360225,8.847940308522766,3999,384,10,1,138
43.72601869789466,45.712854649172854,8.114525154360225,8.847940308522766,3999,384,10,1,139
43.72601869789466,45.712854649172854,8.114525154360225,8.847940308522766,3999,384,10,1,140
43.72474348138422,45.712854649172854,8.114525154360225,8.847940308522766,3999,384,10,1,141
43.72474348138422,45.712854649172854,8.114525154360225,8.847940308522766,3999,320,10,1,142
43.72601869789466,45.712854649172854,8.114525154360225,8.847940308522766,3999,320,10,1,143
43.72601869789466,45.710623007439445,8.114525154360225,8.847940308522766,3999,320,10,1,144
43.72556972197118,45.713582693263284,8.114525154360225,8.847940308522766,3999,320,10,1,145
43.72556972197118,45.710623007439445,8.114525154360225,8.847940308522766,3999,320,10,1,146
43.72601869789466,45.713582693263284,8.114525154360225,8.847940308522766,3999,256,10,1,147
43.72601869789466,45.71405208218457,8.114525154360225,8.847940308522766,3999,256,10,1,148
43.72732720815884,45.71405208218457,8.114525154360225,8.847940308522766,3999,256,10,1,149
43.72732720815884,45.71330677024796,8.114525154360225,8.847940308522766,3999,256,10,1,150
43.722608896635926,45.712854649172854,8.114525154360225,8.847940308522766,3999,256,10,1,151
43.722608896635926,45.71330677024796,8.114525154360225,8.847940308522766,3999,320,10,1,152
43.72531711620931,45.710623007439445,8.114525154360225,8.847940308522766,3999,320,10,1,153
43.72531711620931,45.712854649172854,8.114525154360225,8.847940308522766,3999,320,10,1,154
43.72474348138422,45.712854649172854,8.114525154360225,8.847940308522766,3999,320,10,1,155
43.72474348138422,45.712854649172854,8.114525154360225,8.847940308522766,3999,320,10,1,156
43.72474348138422,45.712854649172854,8.114525154360225,8.847940308522766,3999,320,10,1,157
43.72544557443458,45.713582693263284,8.114525154360225,8.847940308522766,3999,320,10,1,158
43.72556972197118,45.713582693263284,8.114525154360225,8.847940308522766,3999,320,10,1,159
43.72601869789466,45.71405208218457,8.114525154360225,8.847940308522766,3999,320,10,1,160
43.72815344911312,45.71405208218457,8.114525154360225,8.847940308522766,3999,320,10,1,161
43.72815344911312,45.71405208218457,8.114525154360225,8.847940308522766,3999,320,10,1,162
43.728277702562174,45.713582693263284,8.114525154360225,8.847940308522766,3999,256,10,1,163
43.72343534911443,45.713582693263284,8.114525154360225,8.847940308522766,3999,256,10,1,164
43.72474348138422,45.713582693263284,8.114525154360225,8.847940308522766,3999,256,10,1,165
43.72343534911443,45.712854649172854,8.114525154360225,8.847940308522766,3999,0,10,1,166
43.722608896635926,45.710623007439445,8.114525154360225,8.847940308522766,3999,0,10,1,167
43.722608896635926,45.710623007439445,8.114525154360225,8.847940308522766,3999,128,10,1,168
43.722608896635926,45.712854649172854,8.114525154360225,8.847940308522766,3999,128,10,1,169
43.722608896635926,45.712854649172854,8.114525154360225,8.847940308522766,3999,384,10,1,170
43.722608896635926,45.710623007439445,8.114525154360225,8.847940308522766,3999,384,10,1,171
43.72531711620931,45.710623007439445,8.114525154360225,8.847940308522766,3999,320,10,1,172
43.72601869789466,45.71405208218457,8.114525154360225,8.847940308522766,3999,320,10,1,173
43.72815344911312,45.71405208218457,8.114525154360225,8.847940308522766,3999,320,10,1,174
43.72601869789466,45.712854649172854,8.114525154360225,8.847940308522766,3999,320,10,1,175
43.72601869789466,45.710623007439445,8.114525154360225,8.847940308522766,3999,320,10,1,176
43.72474348138422,45.710623007439445,8.114525154360225,8.847940308522766,3999,320,10,1,177
43.72601869789466,45.710623007439445,8.114525154360225,8.847940308522766,3999,320,10,1,178
43.72474348138422,45.712854649172854,8.114525154360225,8.847940308522766,3999,320,10,1,179
43.72474348138422,45.712854649172854,8.114525154360225,8.847940308522766,3999,320,10,1,180
43.72474348138422,45.712854649172854,8.114525154360225,8.847940308522766,3999,320,10,1,181
43.72474348138422,45.712854649172854,8.114525154360225,8.847940308522766,3999,384,10,1,182
43.72474348138422,45.712854649172854,8.114885799683199,8.848204603782591,3999,384,10,2,184
43.72474348138422,45.712854649172854,64.59423763933756,68.27739308441713,3999,384,10,2,185
43.72474348138422,45.712854649172854,64.6010328600999,68.28547153617389,3999,384,10,2,186
43.72474348138422,45.712854649172854,64.60144873194197,68.2888594385276,3999,320,10,2,187
43.72474348138422,45.712854649172854,64.60192207599005,68.28955516169049,3999,320,10,2,188
43.72474348138422,45.712854649172854,64.60514675341315,68.2929439904431,3999,320,10,2,189
43.72474348138422,45.712854649172854,64.60514675341315,68.2929439904431,3999,320,10,2,190
43.72474348138422,45.712854649172854,64.60514675341315,68.2929439904431,3999,320,10,2,191
43.72474348138422,45.712854649172854,64.60514675341315,68.2929439904431,3999,256,10,2,192
43.72474348138422,45.712854649172854,64.60192207599005,68.28955516169049,3999,256,10,2,193
43.72474348138422,45.712854649172854,64.60192207599005,68.28947449569313,3999,256,10,2,194
43.72474348138422,45.712854649172854,64.60192207599005,68.28658847150624,3999,256,10,2,195
43.72474348138422,45.712854649172854,64.60541885145095,68.28947449569313,3999,256,10,2,196
43.72474348138422,45.712854649172854,64.60514675341315,68.28947449569313,3999,384,10,2,197
43.72474348138422,45.712854649172854,64.60514675341315,68.2929439904431,3999,384,10,2,198
43.72474348138422,45.712854649172854,64.60514675341315,68.2929439904431,3999,384,10,2,199
43.72474348138422,45.712854649172854,64.60514675341315,68.29017036060974,3999,384,10,2,200
43.72474348138422,45.712854649172854,64.60467336481562,68.28866675627846,3999,384,10,2,201
43.72474348138422,45.712854649172854,64.60233805172122,68.28866675627846,3999,320,10,2,202
43.72474348138422,45.712854649172854,64.60233805172122,68.28936224682104,3999,320,10,2,203
43.72474348138422,45.712854649172854,64.60233805172122,68.29017036060974,3999,320,10,2,204
43.72474348138422,45.712854649172854,64.60233805172122,68.29017036060974,3999,320,10,2,205
43.72474348138422,45.712854649172854,64.60233805172122,68.29017036060974,3999,320,10,2,206
43.72474348138422,45.712854649172854,64.60233805172122,68.29017036060974,3999,320,10,2,207
43.72474348138422,45.712854649172854,64.60233805172122,68.29017036060974,3999,320,10,2,208
43.72474348138422,45.712854649172854,64.60514675341315,68.2929439904431,3954,320,10,2,209
43.72474348138422,45.712854649172854,64.60514675341315,68.2929439904431,3654,320,10,2,210
43.72474348138422,45.712854649172854,64.60473045054786,68.28874683945699,3288,320,10,2,211
43.72474348138422,45.712854649172854,64.60233805172122,68.28874683945699,2912,320,10,2,212
43.72474348138422,45.712854649172854,64.6018646102753,68.28874683945699,2543,320,10,2,213
43.72474348138422,45.712854649172854,64.6018646102753,68.28947449569313,2192,320,10,2,214
43.72474348138422,45.712854649172854,64.6018646102753,68.28589293403483,1863,320,10,2,215
43.72474348138422,45.712854649172854,64.6018646102753,68.28947449569313,1562,320,10,2,216
43.72474348138422,45.712854649172854,64.6018646102753,68.28947449569313,1288,320,10,2,217
43.72474348138422,45.712854649172854,64.60473045054786,68.29017036060974,1039,384,10,2,218
43.72474348138422,45.712854649172854,64.60514675341315,68.29017036060974,814,384,10,2,219
43.72474348138422,45.712854649172854,64.60514675341315,68.29017036060974,608,384,10,2,220
43.72474348138422,45.712854649172854,64.60514675341315,68.2929439904431,421,384,10,2,221
43.72474348138422,45.712854649172854,64.60514675341315,68.2929439904431,250,128,10,2,222
43.72474348138422,45.712854649172854,64.60514675341315,68.2929439904431,94,0,10,2,223
43.72474348138422,45.712854649172854,64.6018646102753,68.28947449569313,2,0,10,2,224
43.72474348138422,45.712854649172854,64.60144873194197,68.28527798432035,0,0,10,2,225
43.72474348138422,45.712854649172854,64.6018646102753,68.28947449569313,0,0,10,2,226
43.72474348138422,45.712854649172854,64.6018646102753,68.28947449569313,0,0,10,2,227
43.72474348138422,45.712854649172854,64.6018646102753,68.28947449569313,0,64,10,2,228
43.72474348138422,45.712854649172854,64.6018646102753,68.28947449569313,0,64,10,2,229
43.72474348138422,45.712854649172854,64.6018646102753,68.2859733800855,0,64,10,2,230
43.72474348138422,45.712854649172854,64.60514675341315,68.29017036060974,0,320,10,2,231
43.72474348138422,45.712854649172854,64.60514675341315,68.2929439904431,0,320,10,2,232
43.72474348138422,45.712854649172854,64.60514675341315,68.2929439904431,0,320,10,2,233
43.72474348138422,45.712854649172854,64.60514675341315,68.2929439904431,0,320,10,2,234
43.72474348138422,45.712854649172854,64.60514675341315,68.2929439904431,0,320,10,2,235
43.72474348138422,45.712854649172854,64.60514675341315,68.29017036060974,0,320,10,2,236
43.72474348138422,45.712854649172854,64.60514675341315,68.29017036060974,0,256,10,2,237
43.72474348138422,45.712854649172854,64.60233805172122,68.2888594385276,0,256,10,2,238
43.72474348138422,45.712854649172854,64.60144873194197,68.2888594385276,0,256,10,2,239
43.72474348138422,45.712854649172854,64.60233805172122,68.2888594385276,0,256,10,2,240
43.72474348138422,45.712854649172854,64.60144873194197,68.2888594385276,0,256,10,2,241
43.72474348138422,45.712854649172854,64.60117624724431,68.2859733800855,0,256,10,2,242
43.72474348138422,45.712854649172854,64.60117624724431,68.2859733800855,0,256,10,2,243
43.72474348138422,45.712854649172854,64.6018646102753,68.28936224682104,0,256,10,2,244
43.72474348138422,45.712854649172854,64.60514675341315,68.28947449569313,0,256,10,2,245
43.72474348138422,45.712854649172854,64.60514675341315,68.28936224682104,0,256,10,2,246
43.72474348138422,45.712854649172854,64.60233805172122,68.28658847150624,0,384,10,2,247
43.72474348138422,45.712854649172854,64.60233805172122,68.28658847150624,0,384,10,2,248
43.72474348138422,45.712854649172854,64.6058926279989,68.29017036060974,0,384,10,2,249
43.72474348138422,45.712854649172854,64.60795565065422,68.2929439904431,0,384,10,2,250
43.72474348138422,45.712854649172854,64.60795565065422,68.2929439904431,0,384,10,2,251
43.72474348138422,45.712854649172854,64.60233805172122,68.29017036060974,0,384,10,2,252
43.72474348138422,45.712854649172854,64.60233805172122,68.29017036060974,0,320,10,2,253
43.72474348138422,45.712854649172854,64.6018646102753,68.28947449569313,0,320,10,2,254
43.72474348138422,45.712854649172854,64.60233805172122,68.29017036060974,0,320,10,2,255
43.72474348138422,45.712854649172854,64.6018646102753,68.28947449569313,0,320,10,2,0
43.72474348138422,45.712854649172854,64.60233805172122,68.28947449569313,0,320,10,2,1
43.72474348138422,45.712854649172854,64.6018646102753,68.28947449569313,0,256,10,2,2
43.72474348138422,45.712854649172854,64.60514675341315,68.28947449569313,0,256,10,2,3
43.72474348138422,45.712854649172854,64.6018646102753,68.28658847150624,0,256,10,2,4
43.72474348138422,45.712854649172854,64.60514675341315,68.28658847150624,0,256,10,2,5
43.72474348138422,45.712854649172854,64.60233805172122,68.29017036060974,0,256,10,2,6
43.72474348138422,45.712854649172854,64.60870117516453,68.29017036060974,0,384,10,2,7
43.72474348138422,45.712854649172854,64.60514675341315,68.29017036060974,0,384,10,2,8
43.72474348138422,45.712854649172854,64.60514675341315,68.29017036060974,0,384,10,2,9
43.72474348138422,45.712854649172854,64.6018646102753,68.28947449569313,0,384,10,2,10
43.72474348138422,45.712854649172854,64.6018646102753,68.28947449569313,0,384,10,2,11
43.72474348138422,45.712854649172854,64.60514675341315,68.29017036060974,0,256,10,2,12
43.72474348138422,45.712854649172854,64.60514675341315,68.29017036060974,0,256,10,2,13
43.72474348138422,45.712854649172854,64.60233805172122,68.29017036060974,0,256,10,2,14
43.72474348138422,45.712854649172854,64.6018646102753,68.28947449569313,0,256,10,2,15
43.72474348138422,45.712854649172854,64.60233805172122,68.29017036060974,0,64,10,2,16
43.72474348138422,45.712854649172854,64.6018646102753,68.28947449569313,0,64,10,2,17
43.72474348138422,45.712854649172854,64.60514675341315,68.2929439904431,0,64,10,2,18
43.72474348138422,45.712854649172854,64.6022804950873,68.29008956483918,0,64,10,2,19
43.72474348138422,45.712854649172854,64.60233805172122,68.29017036060974,0,256,10,2,20
43.72474348138422,45.712854649172854,64.6022804950873,68.29008956483918,0,256,10,2,21
43.72474348138422,45.712854649172854,64.60233805172122,68.29017036060974,0,256,10,2,22
43.72474348138422,45.712854649172854,64.60514675341315,68.2929439904431,0,256,10,2,23
43.72474348138422,45.712854649172854,64.60514675341315,68.2929439904431,0,256,10,2,24
43.72474348138422,45.712854649172854,64.60233805172122,68.29017036060974,0,256,10,2,25
43.72474348138422,45.712854649172854,64.6018646102753,68.28947449569313,0,384,10,2,26
43.72474348138422,45.712854649172854,64.6018646102753,68.28947449569313,0,384,10,1,29
43.72474348138422,45.712854649172854,64.6018646102753,68.28947449569313,0,384,10,1,30
43.72474348138422,45.716283891329105,64.6018646102753,68.28947449569313,0,448,10,1,31
43.72815344911312,45.716283891329105,64.6018646102753,68.28947449569313,0,448,10,1,32
43.72815344911312,45.713600456051246,64.6018646102753,68.28947449569313,0,448,10,1,33
43.72556972197118,45.713582693263284,64.6018646102753,68.28947449569313,0,448,10,1,34
43.72556972197118,45.713582693263284,64.6018646102753,68.28947449569313,0,448,10,1,35
43.72556972197118,45.713582693263284,64.6018646102753,68.28947449569313,0,256,10,1,36
43.72556972197118,45.713582693263284,64.6018646102753,68.28947449569313,0,256,10,1,37
43.72556972197118,45.713582693263284,64.6018646102753,68.28947449569313,0,256,10,1,38
43.72556972197118,45.712854649172854,64.6018646102753,68.28947449569313,0,256,10,1,39
43.72556972197118,45.712854649172854,64.6018646102753,68.28947449569313,0,256,10,1,40
43.72601869789466,45.712854649172854,64.6018646102753,68.28947449569313,0,256,10,1,41
43.72601869789466,45.71405208218457,64.6018646102753,68.28947449569313,0,384,10,1,42
43.7287267062913,45.71405208218457,64.6018646102753,68.28947449569313,0,384,10,1,43
43.7287267062913,45.71330677024796,64.6018646102753,68.28947449569313,0,384,10,1,44
43.72815344911312,45.71330677024796,64.6018646102753,68.28947449569313,0,384,10,1,45
43.72732720815884,45.71555585487693,64.6018646102753,68.28947449569313,0,384,10,1,46
43.72732720815884,45.71555585487693,64.6018646102753,68.28947449569313,0,256,10,1,47
43.72474348138422,45.712854649172854,64.6018646102753,68.28947449569313,0,256,10,1,48
43.72474348138422,45.712854649172854,64.6018646102753,68.28947449569313,0,256,10,1,49
43.72556972197118,45.713582693263284,64.6018646102753,68.28947449569313,0,256,10,1,50
43.72601869789466,45.71405208218457,64.6018646102753,68.28947449569313,0,256,10,1,51
43.72556972197118,45.713582693263284,64.6018646102753,68.28947449569313,0,448,10,1,52
43.72474348138422,45.712854649172854,64.6018646102753,68.28947449569313,0,448,10,1,53
43.722608896635926,45.712854649172854,64.6018646102753,68.28947449569313,0,448,10,1,54
43.722608896635926,45.712854649172854,64.6018646102753,68.28947449569313,0,448,10,1,55
43.72474348138422,45.712854649172854,64.6018646102753,68.28947449569313,0,448,10,1,56
43.72474348138422,45.712854649172854,64.6018646102753,68.28947449569313,0,320,10,1,57
43.72474348138422,45.712854649172854,64.6018646102753,68.28947449569313,0,320,10,1,58
43.72474348138422,45.712854649172854,64.6018646102753,68.28947449569313,0,320,10,1,59
43.72601869789466,45.71405208218457,64.6018646102753,68.28947449569313,0,320,10,1,60
43.722608896635926,45.710623007439445,64.6018646102753,68.28947449569313,0,320,10,1,61
43.72474348138422,45.712854649172854,64.6018646102753,68.28947449569313,0,384,10,1,62
43.72474348138422,45.712854649172854,64.6018646102753,68.28947449569313,0,384,10,1,63
43.72474348138422,45.712854649172854,64.6018646102753,68.28947449569313,0,384,10,1,64
43.72474348138422,45.712854649172854,64.6018646102753,68.28947449569313,0,384,10,1,65
43.72544557443458,45.716283891329105,64.6018646102753,68.28947449569313,0,384,10,1,66
43.72544557443458,45.716283891329105,64.6018646102753,68.28947449569313,0,384,10,1,67
43.72474348138422,45.712854649172854,64.6018646102753,68.28947449569313,0,384,10,1,68
43.72474348138422,45.712854649172854,64.6018646102753,68.28947449569313,0,384,10,1,69
43.72474348138422,45.712854649172854,64.6018646102753,68.28947449569313,0,384,10,1,70
43.72474348138422,45.71330677024796,64.6018646102753,68.28947449569313,0,128,10,1,71
43.72474348138422,45.716283891329105,64.6018646102753,68.28947449569313,0,128,10,1,72
43.722608896635926,45.71330677024796,64.6018646102753,68.28947449569313,0,128,10,1,73
43.722608896635926,45.716283891329105,64.6018646102753,68.28947449569313,0,128,10,1,74
43.722608896635926,45.716283891329105,64.6018646102753,68.28947449569313,0,128,10,1,75
43.72474348138422,45.716283891329105,64.6018646102753,68.28947449569313,0,128,10,1,76
43.72474348138422,45.713582693263284,64.6018646102753,68.28947449569313,0,128,10,1,77
43.72474348138422,45.712854649172854,64.6018646102753,68.28947449569313,0,64,10,1,78
43.72474348138422,45.712854649172854,64.6018646102753,68.28947449569313,0,64,10,1,79
43.72474348138422,45.712854649172854,64.6018646102753,68.28947449569313,0,320,10,1,80
43.72531711620931,45.71330677024796,64.6018646102753,68.28947449569313,0,320,10,1,81
43.72531711620931,45.71330677024796,64.6018646102753,68.28947449569313,0,320,10,1,82
43.72556972197118,45.713582693263284,64.6018646102753,68.28947449569313,0,320,10,1,83
43.72556972197118,45.713582693263284,64.6018646102753,68.28947449569313,0,320,10,1,84
43.72474348138422,45.712854649172854,64.6018646102753,68.28947449569313,0,320,10,1,85
43.72474348138422,45.712854649172854,64.6018646102753,68.28947449569313,0,320,10,1,86
43.72519224500417,45.71332381753148,64.6018646102753,68.28947449569313,0,320,10,1,87
43.72519224500417,45.71332381753148,64.6018646102753,68.28947449569313,0,320,10,1,88
43.72519224500417,45.71332381753148,64.6018646102753,68.28947449569313,0,320,10,1,89
43.72519224500417,45.71332381753148,64.6018646102753,68.28947449569313,0,320,10,1,90
43.72544557443458,45.713600456051246,64.6018646102753,68.28947449569313,0,320,10,1,91
43.72474348138422,45.713600456051246,64.6018646102753,68.28947449569313,0,256,10,1,92
43.72474348138422,45.713600456051246,64.6018646102753,68.28947449569313,0,256,10,1,93
43.72474348138422,45.712854649172854,64.6018646102753,68.28947449569313,0,256,10,1,94
43.72474348138422,45.712854649172854,64.6018646102753,68.28947449569313,0,256,10,1,95
43.72474348138422,45.712854649172854,64.6018646102753,68.28947449569313,0,256,10,1,96
43.72343534911443,45.712854649172854,64.6018646102753,68.28947449569313,0,320,10,1,97
43.72343534911443,45.712854649172854,64.6018646102753,68.28947449569313,0,320,10,1,98
43.72474348138422,45.71135127968295,64.6018646102753,68.28947449569313,0,320,10,1,99
43.72531711620931,45.712854649172854,64.6018646102753,68.28947449569313,0,320,10,1,100
43.72815344911312,45.712854649172854,64.6018646102753,68.28947449569313,0,320,10,1,101
43.72815344911312,45.71332381753148,64.6018646102753,68.28947449569313,0,384,10,1,102
43.7279006245926,45.71555585487693,64.6018646102753,68.28947449569313,0,384,10,1,103
43.72732720815884,45.71332381753148,64.6018646102753,68.28947449569313,0,384,10,1,104
43.72732720815884,45.710623007439445,64.6018646102753,68.28947449569313,0,384,10,1,105
43.72474348138422,45.71017101257986,64.6018646102753,68.28947449569313,0,384,10,1,106
43.72531711620931,45.71017101257986,64.6018646102753,68.28947449569313,0,448,10,1,107
43.72474348138422,45.710623007439445,64.6018646102753,68.28947449569313,0,448,10,1,108
43.72474348138422,45.710623007439445,64.6018646102753,68.28947449569313,0,448,10,1,109
43.72474348138422,45.712854649172854,64.6018646102753,68.28947449569313,0,448,10,1,110
43.72474348138422,45.712854649172854,64.6018646102753,68.28947449569313,0,448,10,1,111
43.72474348138422,45.712854649172854,64.6018646102753,68.28947449569313,0,448,10,1,112
43.72474348138422,45.712854649172854,64.6018646102753,68.28947449569313,0,448,10,1,113
43.72474348138422,45.712854649172854,64.6018646102753,68.28947449569313,0,448,10,1,114
43.72474348138422,45.712854649172854,64.6018646102753,68.28947449569313,0,448,10,1,115
43.72474348138422,45.712854649172854,64.6018646102753,68.28947449569313,0,448,10,1,116
43.72474348138422,45.712854649172854,64.6018646102753,68.28947449569313,0,448,10,1,117
43.72474348138422,45.712854649172854,64.6018646102753,68.28947449569313,0,320,10,1,118
43.72474348138422,45.712854649172854,64.6018646102753,68.28947449569313,0,320,10,1,119
43.72474348138422,45.712854649172854,64.6018646102753,68.28947449569313,0,320,10,1,120
43.72474348138422,45.712854649172854,64.6018646102753,68.28947449569313,0,320,10,1,121
43.72474348138422,45.712854649172854,64.6018646102753,68.28947449569313,0,192,10,1,122
43.72474348138422,45.712854649172854,64.6018646102753,68.28947449569313,0,192,10,1,123
43.72601869789466,45.712854649172854,64.6018646102753,68.28947449569313,0,192,10,1,124
43.72601869789466,45.712854649172854,64.6018646102753,68.28947449569313,0,448,10,1,125
43.72815344911312,45.712854649172854,64.6018646102753,68.28947449569313,0,448,10,1,126
43.72601869789466,45.71405208218457,64.6018646102753,68.28947449569313,0,256,10,1,127
43.72601869789466,45.71405208218457,64.6018646102753,68.28947449569313,0,256,10,2,129
43.72601869789466,45.71405208218457,64.59347080059683,15.159015486257516,0,256,10,2,130
43.72601869789466,45.71405208218457,64.59347080059683,15.159015486257516,0,256,10,2,131
43.72601869789466,45.71405208218457,64.59347080059683,15.159015486257516,0,256,10,2,132
43.72601869789466,45.71405208218457,64.59085751924579,15.159327282563652,0,320,10,2,133
43.72601869789466,45.71405208218457,64.59085751924579,15.157373184958479,0,320,10,2,134
43.72601869789466,45.71405208218457,64.58814170074226,15.157373184958479,0,320,10,2,135
43.72601869789466,45.71405208218457,64.58814170074226,15.157373184958479,0,320,10,2,136
43.72601869789466,45.71405208218457,64.58814170074226,15.157373184958479,0,256,10,2,137
43.72601869789466,45.71405208218457,64.58773602372831,15.156630337734544,0,256,10,2,138
43.72601869789466,45.71405208218457,64.58773602372831,15.156630337734544,0,256,10,2,139
43.72601869789466,45.71405208218457,64.58773602372831,15.156630337734544,0,256,10,2,140
43.72601869789466,45.71405208218457,64.58814170074226,15.156630337734544,0,256,10,2,141
43.72601869789466,45.71405208218457,64.59045153712698,15.157373184958479,0,320,10,2,142
43.72601869789466,45.71405208218457,64.59045153712698,15.156474128040585,0,320,10,2,143
43.72601869789466,45.71405208218457,64.59085751924579,15.156630337734544,0,320,10,2,144
43.72601869789466,45.71405208218457,64.59045153712698,15.156474128040585,0,320,10,2,145
43.72601869789466,45.71405208218457,64.59045153712698,15.156630337734544,0,320,10,2,146
43.72601869789466,45.71405208218457,64.58814170074226,15.156630337734544,0,256,10,2,147
43.72601869789466,45.71405208218457,64.58814170074226,15.157373184958479,0,256,10,2,148
43.72601869789466,45.71405208218457,64.58769198794863,15.156630337734544,0,256,10,2,149
43.72601869789466,45.71405208218457,64.59085751924579,15.157373184958479,0,256,10,2,150
43.72601869789466,45.71405208218457,64.59085751924579,15.157373184958479,0,256,10,2,151
43.72601869789466,45.71405208218457,64.59085751924579,15.157373184958479,0,320,10,2,152
43.72601869789466,45.71405208218457,64.59085751924579,15.157373184958479,0,320,10,2,153
43.72601869789466,45.71405208218457,64.59045153712698,15.158116051665111,0,320,10,2,154
43.72601869789466,45.71405208218457,64.59045153712698,15.158272312132382,0,320,10,2,155
43.72601869789466,45.71405208218457,64.59045153712698,15.158272312132382,0,320,10,2,156
43.72601869789466,45.71405208218457,64.59085751924579,15.157373184958479,0,448,10,2,157
43.72601869789466,45.71405208218457,64.59085751924579,15.157373184958479,0,448,10,2,158
43.72601869789466,45.71405208218457,64.59085751924579,15.157373184958479,0,448,10,2,159
43.72601869789466,45.71405208218457,64.59045153712698,15.159327282563652,0,448,10,2,160
43.72601869789466,45.71405208218457,64.58814170074226,15.157373184958479,0,448,10,2,161
43.72601869789466,45.71405208218457,64.58814170074226,15.157373184958479,0,448,10,2,162
43.72601869789466,45.71405208218457,64.58814170074226,15.157373184958479,0,256,10,2,163
43.72601869789466,45.71405208218457,64.58769198794863,15.157373184958479,0,256,10,2,164
43.72601869789466,45.71405208218457,64.58769198794863,15.157373184958479,0,256,10,2,165
43.72601869789466,45.71405208218457,64.58814170074226,15.157373184958479,0,256,10,2,166
43.72601869789466,45.71405208218457,64.58814170074226,15.157373184958479,0,256,10,2,167
43.72601869789466,45.71405208218457,64.58814170074226,15.157373184958479,0,448,10,2,168
43.72601869789466,45.71405208218457,64.58814170074226,15.157373184958479,0,448,10,2,169
43.72601869789466,45.71405208218457,64.58814170074226,15.156630337734544,0,448,10,2,170
43.72601869789466,45.71405208218457,64.59045153712698,15.157373184958479,0,448,10,2,171
43.72601869789466,45.71405208218457,64.59045153712698,15.157373184958479,0,448,10,2,172
43.72601869789466,45.71405208218457,64.59045153712698,15.159914676990667,0,384,10,2,173
43.72601869789466,45.71405208218457,64.59085751924579,15.157373184958479,0,384,10,2,174
43.72601869789466,45.71405208218457,64.59428293562995,15.157373184958479,0,384,10,2,175
43.72601869789466,45.71405208218457,64.59428293562995,15.157373184958479,0,384,10,2,176
43.72601869789466,45.71405208218457,64.59085751924579,15.157373184958479,0,128,10,2,177
43.72601869789466,45.71405208218457,64.59085751924579,15.157373184958479,0,64,10,2,178
43.72601869789466,45.71405208218457,64.59085751924579,15.157373184958479,0,64,10,2,179
43.72601869789466,45.71405208218457,64.59085751924579,15.157373184958479,0,64,10,2,180
43.72601869789466,45.71405208218457,64.59085751924579,15.157373184958479,0,64,10,2,181
43.72601869789466,45.71405208218457,64.59045153712698,15.157373184958479,0,64,10,2,182
43.72601869789466,45.71405208218457,64.58814170074226,15.157373184958479,0,64,10,2,183
43.72601869789466,45.71405208218457,64.58814170074226,15.157373184958479,0,64,10,2,184
43.72601869789466,45.71405208218457,64.58814170074226,15.157373184958479,0,64,10,2,185
43.72601869789466,45.71405208218457,64.59045153712698,15.157373184958479,0,320,10,2,186
43.72601869789466,45.71405208218457,64.59085751924579,15.157373184958479,0,448,10,2,187
43.72601869789466,45.71405208218457,64.59085751924579,15.157373184958479,0,448,10,2,188
43.72601869789466,45.71405208218457,64.59085751924579,15.157373184958479,0,448,10,2,189
43.72601869789466,45.71405208218457,64.59085751924579,15.157373184958479,0,448,10,2,190
43.72601869789466,45.71405208218457,64.59085751924579,15.159327282563652,0,448,10,2,191
43.72601869789466,45.71405208218457,64.59085751924579,15.157373184958479,0,256,10,2,192
43.72601869789466,45.71405208218457,64.59085751924579,15.157373184958479,0,256,10,2,193
43.72601869789466,45.71405208218457,64.59085751924579,15.157373184958479,0,256,10,2,194
43.72601869789466,45.71405208218457,64.59085751924579,15.158116051665111,0,256,10,2,195
43.72601869789466,45.71405208218457,64.59085751924579,15.158116051665111,0,256,10,2,196
43.72601869789466,45.71405208218457,64.59085751924579,15.157373184958479,0,256,10,2,197
43.72601869789466,45.71405208218457,64.58814170074226,15.157373184958479,0,256,10,2,198
43.72601869789466,45.71405208218457,64.59085751924579,15.157373184958479,0,256,10,2,199
43.72601869789466,45.71405208218457,64.59428293562995,15.157373184958479,0,256,10,2,200
43.72601869789466,45.71405208218457,64.59428293562995,15.157373184958479,0,256,10,2,201
43.72601869789466,45.71405208218457,64.59085751924579,15.157373184958479,0,256,10,2,202
43.72601869789466,45.71405208218457,64.59085751924579,15.157373184958479,0,256,10,2,203
43.72601869789466,45.71405208218457,64.58773602372831,15.156630337734544,0,256,10,2,204
43.72601869789466,45.71405208218457,64.58769198794863,15.156630337734544,0,256,10,2,205
43.72601869789466,45.71405208218457,64.58769198794863,15.156630337734544,0,256,10,2,206
43.72601869789466,45.71405208218457,64.59045153712698,15.156474128040585,0,256,10,2,207
43.72601869789466,45.71405208218457,64.59085751924579,15.156630337734544,0,384,10,2,208
43.72601869789466,45.71405208218457,64.59085751924579,15.157373184958479,0,384,10,2,209
43.72601869789466,45.71405208218457,64.59085751924579,15.157373184958479,0,384,10,2,210
43.72601869789466,45.71405208218457,64.59085751924579,15.157373184958479,0,384,10,2,211
43.72601869789466,45.71405208218457,64.59085751924579,15.157373184958479,0,384,10,2,212
43.72601869789466,45.71405208218457,64.58814170074226,15.157373184958479,0,384,10,2,213
43.72601869789466,45.71405208218457,64.58814170074226,15.157373184958479,0,384,10,2,214
43.72601869789466,45.71405208218457,64.59156726115151,15.157373184958479,0,384,10,2,215
43.72601869789466,45.71405208218457,64.59156726115151,15.157373184958479,0,384,10,2,216
43.72601869789466,45.71405208218457,64.59085751924579,15.157373184958479,0,384,10,2,217
43.72601869789466,45.71405208218457,64.59045153712698,15.157373184958479,0,448,10,2,218
43.72601869789466,45.71405208218457,64.59045153712698,15.157373184958479,0,448,10,2,219
43.72601869789466,45.71405208218457,64.58769198794863,15.157373184958479,0,448,10,2,220
43.72601869789466,45.71405208218457,64.59428293562995,15.157373184958479,0,448,10,2,221
43.72601869789466,45.71405208218457,64.59085751924579,15.157373184958479,0,448,10,2,222
43.72601869789466,45.71405208218457,64.59428293562995,15.157373184958479,0,384,10,2,223
43.72601869789466,45.71405208218457,64.59085751924579,15.157373184958479,0,384,10,2,224
43.72601869789466,45.71405208218457,64.59428293562995,15.157373184958479,0,384,10,2,225
43.72601869789466,45.71405208218457,64.59085751924579,15.157373184958479,0,384,10,2,226
43.72601869789466,45.71405208218457,64.59085751924579,15.157373184958479,0,128,10,2,227
43.72815344911312,45.71405208218457,64.59085751924579,15.157373184958479,0,128,10,1,230
43.72601869789466,45.712854649172854,64.59085751924579,15.157373184958479,0,128,10,1,231
43.72474348138422,45.712854649172854,64.59085751924579,15.157373184958479,0,384,10,1,232
43.72474348138422,45.712854649172854,64.59085751924579,15.157373184958479,0,384,10,1,233
43.72732720815884,45.71555585487693,64.59085751924579,15.157373184958479,0,384,10,1,234
43.72815344911312,45.716283891329105,64.59085751924579,15.157373184958479,0,384,10,1,235
43.72732720815884,45.71555585487693,64.59085751924579,15.157373184958479,0,384,10,1,236
43.72474348138422,45.712854649172854,64.59085751924579,15.157373184958479,0,192,10,1,237
43.72474348138422,45.712854649172854,64.59085751924579,15.157373184958479,0,192,10,1,238
43.72474348138422,45.712854649172854,64.59085751924579,15.157373184958479,0,192,10,1,239
43.72474348138422,45.712854649172854,64.59085751924579,15.157373184958479,0,192,10,1,240
43.72474348138422,45.712854649172854,64.59085751924579,15.157373184958479,0,384,10,1,241
43.72474348138422,45.712854649172854,64.59085751924579,15.157373184958479,0,384,10,1,242
43.72474348138422,45.712854649172854,64.59085751924579,15.157373184958479,0,384,10,1,243
43.72474348138422,45.712854649172854,64.59085751924579,15.157373184958479,0,384,10,1,244
43.72531711620931,45.71330677024796,64.59085751924579,15.157373184958479,0,384,10,1,245
43.72531711620931,45.71555585487693,64.59085751924579,15.157373184958479,0,384,10,1,246
43.72732720815884,45.71555585487693,64.59085751924579,15.157373184958479,0,384,10,1,247
43.72474348138422,45.712854649172854,64.59085751924579,15.157373184958479,0,384,10,1,248
43.7279006245926,45.712854649172854,64.59085751924579,15.157373184958479,0,384,10,1,249
43.72601869789466,45.71330677024796,64.59085751924579,15.157373184958479,0,384,10,1,250
43.72732720815884,45.71332381753148,64.59085751924579,15.157373184958479,0,384,10,1,251
43.72601869789466,45.71332381753148,64.59085751924579,15.157373184958479,0,384,10,1,252
