BIOZ1,BIOZ2,BIOZ3,BIOZ4,ECG,PPG,EXC_FREQ_KHZ,MUX_CONFIG,PACKET_NUMBER
43.715762483893585,45.693633717058,62.37963426180669,68.26736346590587,0,51914,10,2,248
43.715762483893585,45.693633717058,62.37963426180669,68.26736346590587,0,51914,10,2,249
43.715762483893585,45.693633717058,62.37963426180669,68.26736346590587,0,51914,10,2,250
43.715762483893585,45.693633717058,62.37963426180669,68.26663080485768,0,51914,10,2,251
43.715762483893585,45.693633717058,62.37963426180669,68.26663080485768,0,51914,10,2,252
43.715762483893585,45.693633717058,62.37963426180669,68.26663080485768,0,51914,10,2,253
43.715762483893585,45.693633717058,62.37963426180669,68.26474476294239,0,51914,10,2,254
43.715762483893585,45.693633717058,62.37963426180669,68.26127691085367,0,51914,10,2,255
43.715762483893585,45.693633717058,62.37963426180669,68.26127691085367,0,51914,10,2,0
43.715762483893585,45.693633717058,62.37963426180669,68.2625966419133,0,51914,10,2,1
43.715762483893585,45.693633717058,62.37736937829646,68.26332908294297,0,51914,10,2,2
43.715762483893585,45.693633717058,62.38138350677982,68.26663080485768,0,51914,10,2,3
43.715762483893585,45.693633717058,62.37963426180669,68.26663080485768,0,51914,10,2,4
43.715762483893585,45.693633717058,62.37963426180669,68.26736346590587,0,51914,10,2,5
43.715762483893585,45.693633717058,62.37963426180669,68.26736346590587,0,51914,10,2,6
43.715762483893585,45.693633717058,62.37963426180669,68.26736346590587,0,51914,10,2,7
43.715762483893585,45.693633717058,62.37963426180669,68.26736346590587,0,51914,10,2,8
43.715762483893585,45.693633717058,62.37963426180669,68.26736346590587,0,51914,10,2,9
43.715762483893585,45.693633717058,62.38138350677982,68.26736346590587,0,51914,10,2,10
43.715762483893585,45.693633717058,62.38138350677982,68.26663080485768,0,51914,10,2,11
43.715762483893585,45.693633717058,62.38138350677982,68.26663080485768,0,51914,10,2,12
43.715762483893585,45.693633717058,62.38138350677982,68.26663080485768,0,51914,10,2,13
43.715762483893585,45.693633717058,62.37963426180669,68.26332908294297,0,51914,10,2,14
43.715762483893585,45.693633717058,62.37933230009393,68.2667969734492,0,51914,10,2,15
43.715762483893585,45.693633717058,62.37933230009393,68.26474476294239,0,51914,10,2,16
43.715762483893585,45.693633717058,62.37933230009393,68.26663080485768,0,51914,10,2,17
43.715762483893585,45.693633717058,62.37933230009393,68.26663080485768,0,51914,10,2,18
43.715762483893585,45.693633717058,62.37963426180669,68.2667969734492,0,51914,10,2,19
43.715762483893585,45.693633717058,62.37963426180669,68.2667969734492,0,51914,10,2,20
43.715762483893585,45.693633717058,62.37963426180669,68.26736346590587,0,51914,10,2,21
43.715762483893585,45.693633717058,62.37963426180669,68.26531141509702,0,51914,10,2,22
43.715762483893585,45.693633717058,62.37963426180669,68.26663080485768,0,51914,10,2,23
43.715762483893585,45.693633717058,62.37963426180669,68.26663080485768,0,51914,10,1,177
43.715353962748225,45.693633717058,62.37963426180669,68.26663080485768,0,51914,10,1,178
43.714843576967,45.693633717058,62.37963426180669,68.26663080485768,0,51914,10,1,179
43.715353962748225,45.69332544637147,62.37963426180669,68.26663080485768,0,51914,10,1,180
43.715353962748225,45.696701033091024,62.37963426180669,68.26663080485768,0,51914,10,1,181
43.715353962748225,45.696701033091024,62.37963426180669,68.26663080485768,0,51914,10,1,182
43.715353962748225,45.696701033091024,62.37963426180669,68.26663080485768,0,51914,10,1,183
43.715353962748225,45.696701033091024,62.37527855327849,68.26531141509702,0,51914,10,2,185
43.715353962748225,45.696701033091024,62.37527855327849,68.26663080485768,0,51914,10,2,186
43.715353962748225,45.696701033091024,62.37497694677317,68.26203055467022,0,51914,10,2,187
43.715353962748225,45.696701033091024,62.37933230009393,68.2625966419133,0,51914,10,2,188
43.715353962748225,45.696701033091024,62.38138350677982,68.2625966419133,0,51914,10,2,189
43.715353962748225,45.696701033091024,62.38172523282841,68.26736346590587,0,51914,10,2,190
43.715353962748225,45.696701033091024,62.38172523282841,68.26736346590587,0,51914,10,2,191
43.715353962748225,45.696701033091024,62.37963426180669,68.26736346590587,0,51914,10,2,192
43.715353962748225,45.696701033091024,62.37963426180669,68.26736346590587,0,51914,10,2,193
43.715353962748225,45.696701033091024,62.37963426180669,68.26736346590587,0,51914,10,2,194
43.715353962748225,45.696701033091024,62.37963426180669,68.26736346590587,0,51914,10,2,195
43.715353962748225,45.696701033091024,62.37963426180669,68.26736346590587,0,51914,10,2,196
43.715353962748225,45.696701033091024,62.37963426180669,68.26736346590587,0,51914,10,2,197
43.715353962748225,45.696701033091024,62.38172523282841,68.26736346590587,0,51914,10,2,198
43.715353962748225,45.696701033091024,62.37963426180669,68.26332908294297,0,51914,10,2,199
43.715353962748225,45.696701033091024,62.37929281630714,68.26332908294297,0,51914,10,2,200
43.715353962748225,45.696701033091024,62.37736937829646,68.2625966419133,0,51914,10,2,201
43.715353962748225,45.696701033091024,62.37929281630714,68.26663080485768,0,51914,10,2,202
43.715353962748225,45.696701033091024,62.38172523282841,68.26736346590587,0,51914,10,2,203
43.715353962748225,45.696701033091024,62.38172523282841,68.26736346590587,0,51914,10,2,204
43.715353962748225,45.696701033091024,62.37963426180669,68.26736346590587,0,51914,10,2,205
43.715353962748225,45.696701033091024,62.37963426180669,68.26531141509702,0,51914,10,2,206
43.715353962748225,45.696701033091024,62.37963426180669,68.26736346590587,0,51914,10,2,207
43.715353962748225,45.696701033091024,62.37963426180669,68.26736346590587,0,51914,10,2,208
43.715353962748225,45.696701033091024,62.37963426180669,68.26736346590587,0,51914,10,2,209
43.715353962748225,45.696701033091024,62.37963426180669,68.26736346590587,0,51914,10,2,210
43.715353962748225,45.696701033091024,62.37963426180669,68.26736346590587,0,51914,10,2,211
43.715353962748225,45.696701033091024,62.37963426180669,68.26736346590587,0,51914,10,2,212
43.715353962748225,45.696701033091024,62.37724140928085,68.26474476294239,0,51914,10,2,213
43.715353962748225,45.696701033091024,62.37724140928085,68.26474476294239,0,51914,10,2,214
43.715353962748225,45.696701033091024,62.378990921298005,68.26474476294239,0,51914,10,2,215
43.715353962748225,45.696701033091024,62.378990921298005,68.2640124956671,0,51914,10,2,216
43.715353962748225,45.696701033091024,62.378990921298005,68.2640124956671,0,51914,10,2,217
43.715353962748225,45.696701033091024,62.37933230009393,68.2667969734492,0,51914,10,2,218
43.715353962748225,45.696701033091024,62.37933230009393,68.2667969734492,0,51914,10,2,219
43.715353962748225,45.696701033091024,62.37963426180669,68.26736346590587,0,51914,10,2,220
43.715353962748225,45.696701033091024,62.37963426180669,68.26736346590587,0,51914,10,2,221
43.715353962748225,45.696701033091024,62.37963426180669,68.26736346590587,0,51914,10,2,222
43.715353962748225,45.696701033091024,62.37963426180669,68.26736346590587,0,51914,10,2,223
43.715353962748225,45.696701033091024,62.37963426180669,68.26736346590587,0,51914,10,2,224
43.715353962748225,45.696701033091024,62.38172523282841,68.26736346590587,0,51914,10,2,225
43.715353962748225,45.696701033091024,62.38172523282841,68.26736346590587,0,51914,10,2,226
43.715353962748225,45.696701033091024,62.37963426180669,68.26531141509702,0,51914,10,2,227
43.715353962748225,45.696701033091024,62.37963426180669,68.26531141509702,0,51914,10,2,228
43.715353962748225,45.696701033091024,62.37963426180669,68.26531141509702,0,51914,10,2,229
43.715353962748225,45.696701033091024,62.37963426180669,68.26736346590587,0,51914,10,2,230
43.715353962748225,45.696701033091024,62.37963426180669,68.26736346590587,0,51914,10,2,231
43.715353962748225,45.696701033091024,62.37963426180669,68.26736346590587,0,51914,10,2,232
43.715353962748225,45.696701033091024,62.37963426180669,68.26736346590587,0,51914,10,2,233
43.715353962748225,45.696701033091024,62.37963426180669,68.26736346590587,0,51914,10,2,234
43.715353962748225,45.696701033091024,62.37963426180669,68.26736346590587,0,51914,10,2,235
43.715353962748225,45.696701033091024,62.37933230009393,68.26663080485768,0,51914,10,2,236
43.715353962748225,45.696701033091024,62.37933230009393,68.26474476294239,0,51914,10,2,237
43.715353962748225,45.696701033091024,62.37933230009393,68.26663080485768,0,51914,10,2,238
43.715353962748225,45.696701033091024,62.37933230009393,68.26474476294239,0,51914,10,2,239
43.715353962748225,45.696701033091024,62.37497694677317,68.26203055467022,0,51914,10,2,240
43.715353962748225,45.696701033091024,62.37497694677317,68.26203055467022,0,51914,10,2,241
43.715353962748225,45.696701033091024,62.37527855327849,68.2625966419133,0,51914,10,2,242
43.715353962748225,45.696701033091024,62.37736937829646,68.26531141509702,0,51914,10,2,243
43.715353962748225,45.696701033091024,62.37963426180669,68.26332908294297,0,51914,10,2,244
43.715353962748225,45.696701033091024,62.37963426180669,68.26531141509702,0,51914,10,2,245
43.715353962748225,45.696701033091024,62.37963426180669,68.26531141509702,0,51914,10,2,137
43.715353962748225,45.696701033091024,62.37963426180669,68.26531141509702,3999,51914,10,2,138
43.715353962748225,45.696701033091024,62.37963426180669,68.26531141509702,3999,51914,10,2,139
43.715353962748225,45.696701033091024,62.37933230009393,68.26474476294239,3999,51914,10,2,140
43.715353962748225,45.696701033091024,62.37963426180669,68.26736346590587,3999,51914,10,2,141
43.715353962748225,45.696701033091024,62.37933230009393,68.26474476294239,3999,51914,10,2,142
43.715353962748225,45.696701033091024,62.37963426180669,68.26531141509702,3999,51914,10,2,143
43.715353962748225,45.696701033091024,62.37963426180669,68.26474476294239,3999,51914,10,2,144
43.715353962748225,45.696701033091024,62.37963426180669,68.26332908294297,3999,51914,10,2,145
43.715353962748225,45.696701033091024,62.37933230009393,68.26071053473648,3999,51914,10,2,146
43.715353962748225,45.696701033091024,62.37527855327849,68.26071053473648,3999,51914,10,2,147
43.715353962748225,45.696701033091024,62.37933230009393,68.26127691085367,3999,51914,10,2,148
43.715353962748225,45.696701033091024,62.37963426180669,68.2625966419133,3999,51914,10,2,149
43.715353962748225,45.696701033091024,62.37963426180669,68.2625966419133,3999,51914,10,2,150
43.715353962748225,45.696701033091024,62.37963426180669,68.26736346590587,3999,51914,10,2,151
43.715353962748225,45.696701033091024,62.377710894131546,68.26332908294297,3999,51914,10,2,152
43.715353962748225,45.696701033091024,62.37929281630714,68.26332908294297,3999,51914,10,2,153
43.715353962748225,45.696701033091024,62.377710894131546,68.26332908294297,3999,51914,10,2,154
43.715353962748225,45.696701033091024,62.37929281630714,68.26332908294297,3999,51914,10,2,155
43.715353962748225,45.696701033091024,62.37561978854018,68.26332908294297,3999,51914,10,2,156
43.715353962748225,45.696701033091024,62.37561978854018,68.26332908294297,3999,51914,10,2,157
43.715353962748225,45.696701033091024,62.37561978854018,68.26332908294297,3999,51914,10,2,158
43.715353962748225,45.696701033091024,62.37933230009393,68.26474476294239,3999,51914,10,2,159
43.715353962748225,45.696701033091024,62.37963426180669,68.26531141509702,3999,51914,10,2,160
43.715353962748225,45.696701033091024,62.37963426180669,68.26474476294239,3999,51914,10,2,161
43.715353962748225,45.696701033091024,62.37963426180669,68.26332908294297,3999,51914,10,2,162
43.715353962748225,45.696701033091024,62.37963426180669,68.26332908294297,3999,51914,10,2,163
43.715353962748225,45.696701033091024,62.37561978854018,68.2640124956671,3999,51914,10,2,164
43.715353962748225,45.696701033091024,62.37561978854018,68.26531141509702,3999,51914,10,2,165
43.715353962748225,45.696701033091024,62.37561978854018,68.26531141509702,3999,51914,10,2,166
43.715353962748225,45.696701033091024,62.37561978854018,68.26531141509702,3999,51914,10,2,167
43.715353962748225,45.696701033091024,62.37963426180669,68.26736346590587,3999,51914,10,2,168
43.715353962748225,45.696701033091024,62.37963426180669,68.26736346590587,3999,51914,10,2,169
43.715353962748225,45.696701033091024,62.37963426180669,68.26736346590587,3999,51914,10,2,170
43.715353962748225,45.696701033091024,62.37963426180669,68.26736346590587,3999,51914,10,2,171
43.715353962748225,45.696701033091024,62.37963426180669,68.26736346590587,3999,51914,10,2,172
43.715353962748225,45.696701033091024,62.37963426180669,68.26736346590587,3999,51914,10,2,173
43.715353962748225,45.696701033091024,62.37963426180669,68.26736346590587,3999,51914,10,2,174
43.715353962748225,45.696701033091024,62.37963426180669,68.26736346590587,3999,51914,10,2,175
43.715353962748225,45.696701033091024,62.37929281630714,68.26663080485768,3999,51914,10,2,176
43.715353962748225,45.696701033091024,62.37929281630714,68.26531141509702,3999,51914,10,2,177
43.715353962748225,45.696701033091024,62.37929281630714,68.26531141509702,3999,51914,10,2,178
43.715353962748225,45.696701033091024,62.37963426180669,68.26332908294297,3999,51914,10,2,179
43.715353962748225,45.696701033091024,62.375318115385156,68.26332908294297,3999,51914,10,2,180
43.715353962748225,45.696701033091024,62.37736937829646,68.26332908294297,3999,51914,10,2,181
43.715353962748225,45.696701033091024,62.37736937829646,68.26663080485768,3999,51914,10,2,182
43.715353962748225,45.696701033091024,62.37929281630714,68.2625966419133,3999,51914,10,2,183
43.715353962748225,45.696701033091024,62.37963426180669,68.26736346590587,3999,51914,10,2,184
43.715353962748225,45.696701033091024,62.37963426180669,68.26736346590587,3999,51914,10,1,66
43.715353962748225,45.696701033091024,62.37933230009393,68.2667969734492,3999,51914,10,2,74
43.715353962748225,45.696701033091024,62.37963426180669,68.26736346590587,3999,51914,10,2,75
43.715353962748225,45.696701033091024,62.38138350677982,68.2667969734492,3999,51914,10,2,76
43.715353962748225,45.696701033091024,62.38138350677982,68.2625966419133,3999,51914,10,2,77
43.715353962748225,45.696701033091024,62.37929281630714,68.2625966419133,3999,51914,10,2,78
43.715353962748225,45.696701033091024,62.377710894131546,68.2625966419133,3999,51914,10,2,79
43.715353962748225,45.696701033091024,62.377710894131546,68.26332908294297,3999,51914,10,2,80
43.715353962748225,45.696701033091024,62.377710894131546,68.26332908294297,3999,51914,10,2,81
43.715353962748225,45.696701033091024,62.37963426180669,68.26736346590587,3999,51914,10,2,82
43.715353962748225,45.696701033091024,62.37963426180669,68.26736346590587,3999,51914,10,2,83
43.715353962748225,45.696701033091024,62.37963426180669,68.26736346590587,3999,51914,10,2,84
43.715353962748225,45.696701033091024,62.38172523282841,68.26736346590587,3999,51914,10,2,85
43.715353962748225,45.696701033091024,62.37933230009393,68.26474476294239,3999,51914,10,2,86
43.715353962748225,45.696701033091024,62.38172523282841,68.26474476294239,3999,51914,10,2,87
43.715353962748225,45.696701033091024,62.37963426180669,68.26474476294239,3999,51914,10,2,88
43.715353962748225,45.696701033091024,62.37963426180669,68.26332908294297,3999,51914,10,2,89
43.715353962748225,45.696701033091024,62.37736937829646,68.2625966419133,3999,51914,10,2,90
43.715353962748225,45.696701033091024,62.37736937829646,68.2625966419133,3999,51914,10,2,91
43.715353962748225,45.696701033091024,62.37736937829646,68.2625966419133,3999,51914,10,2,92
43.715353962748225,45.696701033091024,62.37963426180669,68.26531141509702,3999,51914,10,2,93
43.715353962748225,45.696701033091024,62.37963426180669,68.26736346590587,3999,51914,10,2,94
43.715353962748225,45.696701033091024,62.37963426180669,68.26736346590587,3999,51914,10,2,95
43.715353962748225,45.696701033091024,62.37963426180669,68.26531141509702,3999,51914,10,2,96
43.715353962748225,45.696701033091024,62.37963426180669,68.26531141509702,3999,51914,10,2,97
43.715353962748225,45.696701033091024,62.37933230009393,68.26474476294239,3999,51914,10,2,98
43.715353962748225,45.696701033091024,62.37933230009393,68.26474476294239,3999,51914,10,2,99
43.715353962748225,45.696701033091024,62.37933230009393,68.26474476294239,3999,51914,10,2,100
43.715353962748225,45.696701033091024,62.37933230009393,68.26474476294239,3999,51914,10,2,101
43.715353962748225,45.696701033091024,62.38172523282841,68.26474476294239,3999,51914,10,2,102
43.715353962748225,45.696701033091024,62.37963426180669,68.26474476294239,3999,51914,10,2,103
43.715353962748225,45.696701033091024,62.37963426180669,68.26531141509702,3999,51914,10,2,104
43.715353962748225,45.696701033091024,62.37963426180669,68.26736346590587,3999,51914,10,2,105
43.715353962748225,45.696701033091024,62.37963426180669,68.26736346590587,3999,51914,10,2,106
43.715353962748225,45.696701033091024,62.37963426180669,68.26736346590587,3999,51914,10,2,107
43.715353962748225,45.696701033091024,62.37963426180669,68.26332908294297,3999,51914,10,2,108
43.715353962748225,45.696701033091024,62.37736937829646,68.2625966419133,3999,51914,10,2,109
43.715353962748225,45.696701033091024,62.37736937829646,68.2625966419133,3999,51914,10,2,110
43.715353962748225,45.696701033091024,62.37963426180669,68.2625966419133,3999,51914,10,2,111
43.715353962748225,45.696701033091024,62.37963426180669,68.26332908294297,3999,51914,10,2,112
43.715353962748225,45.696701033091024,62.37963426180669,68.2625966419133,3999,51914,10,2,113
43.715353962748225,45.696701033091024,62.37963426180669,68.26332908294297,3999,51914,10,2,114
43.715353962748225,45.696701033091024,62.37929281630714,68.2625966419133,3999,51914,10,2,115
43.715353962748225,45.696701033091024,62.37963426180669,68.26332908294297,3999,51914,10,2,116
43.715353962748225,45.696701033091024,62.37963426180669,68.26332908294297,3999,51914,10,2,117
43.715353962748225,45.696701033091024,62.37963426180669,68.26531141509702,3999,51914,10,2,25
43.715353962748225,45.696701033091024,62.37963426180669,68.26332908294297,3999,51914,10,2,26
43.715353962748225,45.696701033091024,62.378990921298005,68.25997848744966,3999,51914,10,2,27
43.715353962748225,45.696701033091024,62.37527855327849,68.25997848744966,3999,51914,10,2,28
43.715353962748225,45.696701033091024,62.378990921298005,68.2625966419133,3999,51914,10,2,29
43.715353962748225,45.696701033091024,62.37527855327849,68.26663080485768,3999,51914,10,2,30
43.715353962748225,45.696701033091024,62.37963426180669,68.26663080485768,3999,51914,10,2,31
43.715353962748225,45.696701033091024,62.37527855327849,68.26531141509702,3999,51914,10,2,32
43.715353962748225,45.696701033091024,62.37963426180669,68.26332908294297,3999,51914,10,2,33
43.715353962748225,45.696701033091024,62.37933230009393,68.26332908294297,3999,51914,10,2,34
43.715353962748225,45.696701033091024,62.37933230009393,68.26332908294297,3999,51914,10,2,35
43.715353962748225,45.696701033091024,62.37933230009393,68.26071053473648,3999,51914,10,2,36
43.715353962748225,45.696701033091024,62.37933230009393,68.26071053473648,3999,51914,10,2,37
43.715353962748225,45.696701033091024,62.37963426180669,68.26531141509702,3999,51914,10,2,38
43.715353962748225,45.696701033091024,62.37963426180669,68.26531141509702,3995,51914,10,2,39
43.715353962748225,45.696701033091024,62.37963426180669,68.26332908294297,3724,51914,10,2,40
43.715353962748225,45.696701033091024,62.37933230009393,68.26332908294297,3233,51914,10,2,41
43.715353962748225,45.696701033091024,62.37933230009393,68.26474476294239,2696,51914,10,2,42
43.715353962748225,45.696701033091024,62.37933230009393,68.26474476294239,2140,51914,10,2,43
43.715353962748225,45.696701033091024,62.37933230009393,68.26474476294239,1583,51914,10,2,44
43.715353962748225,45.696701033091024,62.37963426180669,68.26531141509702,1038,51914,10,2,45
43.715353962748225,45.696701033091024,62.37736937829646,68.2625966419133,520,51914,10,2,46
43.715353962748225,45.696701033091024,62.37929281630714,68.2625966419133,79,51914,10,2,47
43.715353962748225,45.696701033091024,62.37754354914297,68.2625966419133,0,51914,10,2,48
43.715353962748225,45.696701033091024,62.37929281630714,68.2625966419133,0,51914,10,2,49
43.715353962748225,45.696701033091024,62.37963426180669,68.26736346590587,0,51914,10,2,50
43.715353962748225,45.696701033091024,62.37997573329115,68.26736346590587,0,51914,10,2,51
43.715353962748225,45.696701033091024,62.37963426180669,68.26736346590587,0,51914,10,2,52
43.715353962748225,45.696701033091024,62.37933230009393,68.26474476294239,0,51914,10,2,53
43.715353962748225,45.696701033091024,62.37933230009393,68.26474476294239,0,51914,10,2,54
43.715353962748225,45.696701033091024,62.37963426180669,68.26531141509702,0,51914,10,2,55
43.715353962748225,45.696701033091024,62.37963426180669,68.26736346590587,0,51914,10,2,56
43.715353962748225,45.696701033091024,62.37963426180669,68.26736346590587,0,51914,10,2,57
43.715353962748225,45.696701033091024,62.37963426180669,68.26531141509702,0,51914,10,2,58
43.715353962748225,45.696701033091024,62.37963426180669,68.26531141509702,0,51914,10,2,59
43.715353962748225,45.696701033091024,62.37963426180669,68.26736346590587,0,51914,10,2,60
43.715353962748225,45.696701033091024,62.37963426180669,68.26736346590587,0,51914,10,2,61
43.715353962748225,45.696701033091024,62.37963426180669,68.26736346590587,0,51914,10,2,62
43.715353962748225,45.696701033091024,62.37963426180669,68.26736346590587,0,51914,10,2,63
43.715353962748225,45.696701033091024,62.37963426180669,68.26736346590587,0,51914,10,2,64
43.715353962748225,45.696701033091024,62.37736937829646,68.2625966419133,0,51914,10,2,65
43.715353962748225,45.696701033091024,62.37736937829646,68.2625966419133,0,51914,10,2,66
43.715353962748225,45.696701033091024,62.37561978854018,68.2625966419133,0,51914,10,2,67
43.715353962748225,45.696701033091024,62.37561978854018,68.26276286652588,0,51914,10,2,68
43.715353962748225,45.696701033091024,62.37561978854018,68.2625966419133,0,51914,10,2,69
43.715353962748225,45.696701033091024,62.37561978854018,68.2625966419133,0,51914,10,2,70
43.715762483893585,45.6953176966422,62.37561978854018,68.2625966419133,0,51914,10,1,213
43.715762483893585,45.69750122067789,62.37561978854018,68.2625966419133,0,51914,10,1,214
43.715762483893585,45.696701033091024,62.37561978854018,68.2625966419133,0,51914,10,1,215
43.715762483893585,45.696701033091024,62.37736937829646,68.2625966419133,0,51914,10,2,217
43.715762483893585,45.696701033091024,62.37497694677317,68.26203055467022,0,51914,10,2,218
43.715762483893585,45.696701033091024,62.37903031574301,68.26623043001716,0,51914,10,2,219
43.715762483893585,45.696701033091024,62.37933230009393,68.2667969734492,0,51914,10,2,220
43.715762483893585,45.696701033091024,62.37963426180669,68.2667969734492,0,51914,10,2,221
43.715762483893585,45.696701033091024,62.37963426180669,68.26663080485768,0,51914,10,2,222
43.715762483893585,45.696701033091024,62.37933230009393,68.26474476294239,0,51914,10,2,223
43.715762483893585,45.696701033091024,62.37933230009393,68.26663080485768,0,51914,10,2,224
43.715762483893585,45.696701033091024,62.37933230009393,68.26474476294239,0,51914,10,2,225
43.715762483893585,45.696701033091024,62.37963426180669,68.2625966419133,0,51914,10,2,226
43.715762483893585,45.696701033091024,62.37963426180669,68.2625966419133,0,51914,10,2,227
43.715762483893585,45.696701033091024,62.37963426180669,68.26736346590587,0,51914,10,2,228
43.715762483893585,45.696701033091024,62.38172523282841,68.26736346590587,0,51914,10,2,229
43.715762483893585,45.696701033091024,62.37963426180669,68.26736346590587,0,51914,10,2,230
43.715762483893585,45.696701033091024,62.37561978854018,68.26332908294297,0,51914,10,2,231
43.715762483893585,45.696701033091024,62.37561978854018,68.26332908294297,0,51914,10,2,232
43.715762483893585,45.696701033091024,62.37527855327849,68.26054473439058,0,51914,10,2,233
43.715762483893585,45.696701033091024,62.37963426180669,68.26736346590587,0,51914,10,2,234
43.715762483893585,45.696701033091024,62.37963426180669,68.26736346590587,0,51914,10,2,235
43.715762483893585,45.696701033091024,62.37963426180669,68.26736346590587,0,51914,10,2,236
43.715762483893585,45.696701033091024,62.37963426180669,68.26663080485768,0,51914,10,2,237
43.715762483893585,45.696701033091024,62.37963426180669,68.26663080485768,0,51914,10,2,238
43.715762483893585,45.696701033091024,62.37963426180669,68.26663080485768,0,51914,10,2,239
43.715762483893585,45.696701033091024,62.37736937829646,68.2625966419133,0,51914,10,2,240
43.715762483893585,45.696701033091024,62.37736937829646,68.2625966419133,0,51914,10,2,241
43.715762483893585,45.696701033091024,62.37736937829646,68.2625966419133,0,51914,10,2,242
43.715762483893585,45.696701033091024,62.378990921298005,68.2640124956671,0,51914,10,2,243
43.715762483893585,45.696701033091024,62.37963426180669,68.26332908294297,0,51914,10,2,244
43.715762483893585,45.696701033091024,62.37963426180669,68.26332908294297,0,51914,10,2,245
43.715762483893585,45.696701033091024,62.37963426180669,68.26332908294297,0,51914,10,2,246
43.715762483893585,45.696701033091024,62.37561978854018,68.26531141509702,0,51914,10,2,247
43.715762483893585,45.696701033091024,62.37963426180669,68.26736346590587,0,51914,10,2,248
43.715762483893585,45.696701033091024,62.37933230009393,68.26531141509702,0,51914,10,2,249
43.715762483893585,45.696701033091024,62.37963426180669,68.26736346590587,0,51914,10,2,250
43.715762483893585,45.696701033091024,62.37933230009393,68.26474476294239,0,51914,10,2,251
43.715762483893585,45.696701033091024,62.37933230009393,68.26474476294239,0,51914,10,2,252
43.715762483893585,45.696701033091024,62.37933230009393,68.26474476294239,0,51914,10,2,253
43.715762483893585,45.696701033091024,62.37933230009393,68.26474476294239,0,51914,10,2,254
43.715762483893585,45.696701033091024,62.37963426180669,68.26531141509702,0,51914,10,2,255
43.715762483893585,45.696701033091024,62.37963426180669,68.26531141509702,0,51914,10,2,0
43.715762483893585,45.696701033091024,62.37963426180669,68.26531141509702,0,51914,10,2,1
43.715762483893585,45.696701033091024,62.37963426180669,68.26531141509702,0,51914,10,2,2
43.715762483893585,45.696701033091024,62.37933230009393,68.26474476294239,0,51914,10,2,3
43.715762483893585,45.696701033091024,62.37933230009393,68.26474476294239,0,51914,10,2,178
43.715762483893585,45.696701033091024,62.37933230009393,68.26474476294239,0,51914,10,2,179
43.715762483893585,45.696701033091024,62.37963426180669,68.26531141509702,0,51914,10,2,180
43.715762483893585,45.696701033091024,62.37963426180669,68.26531141509702,0,51914,10,2,181
43.715762483893585,45.696701033091024,62.37736937829646,68.2625966419133,0,51914,10,2,182
43.715762483893585,45.696701033091024,62.37736937829646,68.2625966419133,0,51914,10,2,183
43.715762483893585,45.696701033091024,62.37561978854018,68.26736346590587,0,51914,10,2,184
43.715762483893585,45.696701033091024,62.38172523282841,68.26736346590587,0,51914,10,2,185
43.715762483893585,45.696701033091024,62.37561978854018,68.26736346590587,0,51914,10,2,186
43.715762483893585,45.696701033091024,62.37527855327849,68.26054473439058,0,51914,10,2,187
43.715762483893585,45.696701033091024,62.37527855327849,68.26054473439058,0,51914,10,2,188
43.715762483893585,45.696701033091024,62.37963426180669,68.26736346590587,0,51914,10,2,189
43.715762483893585,45.696701033091024,62.37963426180669,68.26736346590587,0,51914,10,2,190
43.715762483893585,45.696701033091024,62.37527855327849,68.2625966419133,0,51914,10,2,191
43.715762483893585,45.696701033091024,62.37527855327849,68.2625966419133,0,51914,10,2,192
43.715762483893585,45.696701033091024,62.37963426180669,68.26332908294297,0,51914,10,2,193
43.715762483893585,45.696701033091024,62.38172523282841,68.26332908294297,0,51914,10,2,194
43.715762483893585,45.696701033091024,62.38172523282841,68.26736346590587,0,51914,10,2,195
43.715762483893585,45.696701033091024,62.38172523282841,68.26736346590587,0,51914,10,2,196
43.715762483893585,45.696701033091024,62.37963426180669,68.26736346590587,0,51914,10,2,197
43.715762483893585,45.696701033091024,62.37963426180669,68.26736346590587,0,51914,10,2,198
43.715762483893585,45.696701033091024,62.37963426180669,68.26736346590587,0,51914,10,2,199
43.715762483893585,45.696701033091024,62.37963426180669,68.26736346590587,0,51914,10,2,200
43.715762483893585,45.696701033091024,62.37963426180669,68.26736346590587,0,51914,10,2,201
43.715762483893585,45.696701033091024,62.37963426180669,68.26736346590587,0,51914,10,2,202
43.715762483893585,45.696701033091024,62.37929281630714,68.26663080485768,0,51914,10,2,203
43.715762483893585,45.696701033091024,62.37929281630714,68.26663080485768,0,51914,10,2,204
43.715762483893585,45.696701033091024,62.37963426180669,68.26736346590587,0,51914,10,2,205
43.715762483893585,45.696701033091024,62.37963426180669,68.26736346590587,0,51914,10,2,206
43.715762483893585,45.696701033091024,62.37963426180669,68.26736346590587,0,51914,10,2,207
43.715762483893585,45.696701033091024,62.37963426180669,68.26736346590587,0,51914,10,2,208
43.715762483893585,45.696701033091024,62.37963426180669,68.26736346590587,0,51914,10,2,209
43.715762483893585,45.696701033091024,62.37561978854018,68.26736346590587,0,51914,10,2,210
43.715762483893585,45.696701033091024,62.37561978854018,68.26736346590587,0,51914,10,2,211
43.715762483893585,45.696701033091024,62.37963426180669,68.26531141509702,0,51914,10,2,212
43.715762483893585,45.696701033091024,62.37963426180669,68.26736346590587,0,51914,10,2,213
43.715762483893585,45.696701033091024,62.37963426180669,68.26531141509702,0,51914,10,2,214
43.715762483893585,45.696701033091024,62.37963426180669,68.26736346590587,0,51914,10,2,215
43.715762483893585,45.696701033091024,62.37933230009393,68.26474476294239,0,51914,10,2,216
43.715762483893585,45.696701033091024,62.37963426180669,68.26531141509702,0,51914,10,2,217
43.715762483893585,45.696701033091024,62.3776707839879,68.26316267815199,0,51914,10,2,218
43.715762483893585,45.696701033091024,62.377710894131546,68.26332908294297,0,51914,10,2,219
43.715762483893585,45.696701033091024,62.377710894131546,68.26332908294297,0,51914,10,2,220
43.715762483893585,45.696701033091024,62.377710894131546,68.26332908294297,0,51914,10,2,221
43.715762483893585,45.696701033091024,62.37963426180669,68.26531141509702,0,51914,10,2,222
43.715762483893585,45.696701033091024,62.37527855327849,68.2625966419133,0,51914,10,2,223
43.715762483893585,45.696701033091024,62.37963426180669,68.26531141509702,0,51914,10,2,224
43.715762483893585,45.696701033091024,62.37527855327849,68.2625966419133,0,51914,10,2,225
43.715762483893585,45.696701033091024,62.37963426180669,68.2667969734492,4,51914,10,2,106
43.715762483893585,45.696701033091024,62.37933230009393,68.26474476294239,3999,51914,10,2,107
43.715762483893585,45.696701033091024,62.37933230009393,68.26474476294239,3999,51914,10,2,108
43.715762483893585,45.696701033091024,62.37933230009393,68.26474476294239,3999,51914,10,2,109
43.715762483893585,45.696701033091024,62.37963426180669,68.26531141509702,3999,51914,10,2,110
43.715762483893585,45.696701033091024,62.37963426180669,68.26531141509702,3999,51914,10,2,111
43.715762483893585,45.696701033091024,62.37963426180669,68.26332908294297,3999,51914,10,2,112
43.715762483893585,45.696701033091024,62.37963426180669,68.26332908294297,3999,51914,10,2,113
43.715762483893585,45.696701033091024,62.37963426180669,68.26332908294297,3999,51914,10,2,114
43.715762483893585,45.696701033091024,62.37963426180669,68.26332908294297,3999,51914,10,2,115
43.715762483893585,45.696701033091024,62.38172523282841,68.26127691085367,3999,51914,10,2,116
43.715762483893585,45.696701033091024,62.38172523282841,68.26127691085367,3999,51914,10,2,117
43.715762483893585,45.696701033091024,62.38172523282841,68.26474476294239,3999,51914,10,2,118
43.715762483893585,45.696701033091024,62.37933230009393,68.26474476294239,3999,51914,10,2,119
43.715762483893585,45.696701033091024,62.37933230009393,68.26474476294239,3999,51914,10,2,120
43.715762483893585,45.696701033091024,62.37933230009393,68.26474476294239,3999,51914,10,2,121
43.715762483893585,45.696701033091024,62.378990921298005,68.2625966419133,3999,51914,10,2,122
43.715762483893585,45.696701033091024,62.37963426180669,68.26531141509702,3999,51914,10,2,123
43.715762483893585,45.696701033091024,62.378990921298005,68.26332908294297,3999,51914,10,2,124
43.715762483893585,45.696701033091024,62.37963426180669,68.26332908294297,3999,51914,10,2,125
43.715762483893585,45.696701033091024,62.37963426180669,68.26332908294297,3999,51914,10,2,126
43.715762483893585,45.696701033091024,62.37963426180669,68.2625966419133,3999,51914,10,2,127
43.715762483893585,45.696701033091024,62.37527855327849,68.2625966419133,3999,51914,10,2,128
43.715762483893585,45.696701033091024,62.37527855327849,68.2625966419133,3999,51914,10,2,129
43.715762483893585,45.696701033091024,62.37736937829646,68.26663080485768,3999,51914,10,2,130
43.715762483893585,45.696701033091024,62.37736937829646,68.26663080485768,3999,51914,10,2,131
43.715762483893585,45.696701033091024,62.37933230009393,68.26474476294239,3999,51914,10,2,132
43.715762483893585,45.696701033091024,62.37933230009393,68.26474476294239,3999,51914,10,2,133
43.715762483893585,45.696701033091024,62.37963426180669,68.26736346590587,3999,51914,10,2,134
43.715762483893585,45.696701033091024,62.37963426180669,68.26736346590587,3999,51914,10,2,135
43.715762483893585,45.696701033091024,62.37963426180669,68.26736346590587,3999,51914,10,2,136
43.715762483893585,45.696701033091024,62.37963426180669,68.26531141509702,3999,51914,10,2,137
43.715762483893585,45.696701033091024,62.37561978854018,68.26332908294297,3999,51914,10,2,138
43.715762483893585,45.696701033091024,62.37527855327849,68.2625966419133,3999,51914,10,2,139
43.715762483893585,45.696701033091024,62.37561978854018,68.26332908294297,3999,51914,10,2,140
43.715762483893585,45.696701033091024,62.37933230009393,68.26474476294239,3999,51914,10,2,141
43.715762483893585,45.696701033091024,62.37963426180669,68.26736346590587,3999,51914,10,2,142
43.715762483893585,45.696701033091024,62.37963426180669,68.26736346590587,3999,51914,10,2,143
43.715762483893585,45.696701033091024,62.37963426180669,68.26736346590587,3999,51914,10,2,144
43.715762483893585,45.696701033091024,62.37963426180669,68.26736346590587,3999,51914,10,2,145
43.715762483893585,45.696701033091024,62.37963426180669,68.26531141509702,3999,51914,10,2,146
43.715762483893585,45.696701033091024,62.37963426180669,68.26531141509702,3999,51914,10,2,147
43.715762483893585,45.696701033091024,62.37933230009393,68.26474476294239,3999,51914,10,2,148
43.715762483893585,45.696701033091024,62.37963426180669,68.26531141509702,3999,51914,10,2,149
43.715762483893585,45.696701033091024,62.37963426180669,68.26531141509702,3999,51914,10,2,150
43.715762483893585,45.696701033091024,62.37963426180669,68.26531141509702,3999,51914,10,2,151
43.715762483893585,45.696701033091024,62.37561978854018,68.26663080485768,3999,51914,10,2,152
43.715762483893585,45.696701033091024,62.37561978854018,68.26663080485768,3999,51914,10,2,153
43.715762483893585,45.696701033091024,62.37963426180669,68.26736346590587,3999,51914,10,2,154
43.715762483893585,45.696701033091024,62.37963426180669,68.26736346590587,3999,51914,10,2,155
43.715762483893585,45.696701033091024,62.37963426180669,68.26736346590587,3999,51914,10,2,156
43.715762483893585,45.696701033091024,62.37929281630714,68.26663080485768,3999,51914,10,2,157
43.715762483893585,45.696701033091024,62.37736937829646,68.26663080485768,3999,51914,10,2,158
43.715762483893585,45.696701033091024,62.37929281630714,68.26663080485768,3999,51914,10,2,159
43.715762483893585,45.696701033091024,62.37724140928085,68.26474476294239,3999,51914,10,2,160
43.715762483893585,45.696701033091024,62.37724140928085,68.26474476294239,3999,51914,10,2,161
43.715762483893585,45.696701033091024,62.37724140928085,68.26474476294239,3999,51914,10,2,162
43.715762483893585,45.696701033091024,62.37963426180669,68.26736346590587,3999,51914,10,2,163
43.715762483893585,45.696701033091024,62.37963426180669,68.26736346590587,3999,51914,10,2,164
43.715762483893585,45.696701033091024,62.37963426180669,68.26736346590587,3999,51914,10,2,165
43.715762483893585,45.696701033091024,62.37963426180669,68.26736346590587,3999,51914,10,2,166
43.715762483893585,45.696701033091024,62.37963426180669,68.26736346590587,3999,51914,10,2,167
43.715762483893585,45.696701033091024,62.37963426180669,68.26736346590587,3999,51914,10,2,168
43.715762483893585,45.696701033091024,62.37963426180669,68.26736346590587,3999,51914,10,2,169
43.715762483893585,45.696701033091024,62.37963426180669,68.26736346590587,3999,51914,10,2,170
43.715762483893585,45.696701033091024,62.37963426180669,68.26736346590587,3999,51914,10,2,171
43.715762483893585,45.696701033091024,62.37963426180669,68.26736346590587,3999,51914,10,2,172
43.715762483893585,45.696701033091024,62.37963426180669,68.26531141509702,3999,51914,10,2,173
43.715762483893585,45.696701033091024,62.37963426180669,68.26531141509702,3999,51914,10,2,174
43.715762483893585,45.696701033091024,62.37963426180669,68.26736346590587,3999,51914,10,2,175
43.715762483893585,45.696701033091024,62.37963426180669,68.26736346590587,3999,51914,10,2,176
43.715762483893585,45.696701033091024,62.37963426180669,68.26736346590587,3999,51914,10,2,177
43.715762483893585,45.696701033091024,62.37933230009393,68.2667969734492,3999,51914,10,2,178
43.715762483893585,45.696701033091024,62.37933230009393,68.2667969734492,3999,51914,10,2,179
43.715762483893585,45.696701033091024,62.37933230009393,68.2667969734492,3999,51914,10,2,180
43.715762483893585,45.696701033091024,62.37933230009393,68.2667969734492,3999,51914,10,2,181
43.715762483893585,45.696701033091024,62.37561978854018,68.2667969734492,3999,51914,10,2,182
43.715762483893585,45.696701033091024,62.37561978854018,68.26736346590587,3999,51914,10,2,183
43.715762483893585,45.696701033091024,62.37933230009393,68.26736346590587,3999,51914,10,2,145
43.715762483893585,45.696701033091024,62.37933230009393,68.26474476294239,3999,51914,10,2,146
43.715762483893585,45.696701033091024,62.37933230009393,68.26474476294239,3999,51914,10,2,147
43.71869702965533,45.69750122067789,62.37933230009393,68.26474476294239,3999,51914,10,1,149
43.71869702965533,45.696866166090054,62.37933230009393,68.26474476294239,3999,51914,10,1,150
43.71657986380049,45.698117435894176,62.37933230009393,68.26474476294239,3999,51914,10,1,151
43.71657986380049,45.698117435894176,62.37933230009393,68.26474476294239,3999,51914,10,1,152
43.71657986380049,45.698117435894176,62.37933230009393,68.26474476294239,3999,51914,10,1,153
43.716677359664104,45.700568796328184,62.37933230009393,68.26474476294239,3999,51914,10,1,154
43.715762483893585,45.69750122067789,62.37933230009393,68.26474476294239,3999,51914,10,1,155
43.716677359664104,45.700568796328184,62.37933230009393,68.26474476294239,3999,51914,10,1,156
43.715762483893585,45.69750122067789,62.37933230009393,68.26474476294239,3999,51914,10,1,157
43.715762483893585,45.69750122067789,62.37933230009393,68.26474476294239,3999,51914,10,1,158
43.715762483893585,45.69750122067789,62.37933230009393,68.26474476294239,3999,51914,10,1,159
43.715762483893585,45.69750122067789,62.37933230009393,68.26474476294239,3999,51914,10,1,160
43.715762483893585,45.69750122067789,62.37933230009393,68.26474476294239,3999,51914,10,1,161
43.715762483893585,45.69750122067789,62.37933230009393,68.26474476294239,3999,51914,10,1,162
43.715353962748225,45.69750122067789,62.37933230009393,68.26474476294239,3999,51914,10,1,163
43.715762483893585,45.69750122067789,62.37933230009393,68.26474476294239,3999,51914,10,1,164
43.715762483893585,45.69750122067789,62.37933230009393,68.26474476294239,3999,51914,10,1,165
43.715762483893585,45.69750122067789,62.37933230009393,68.26474476294239,3999,51914,10,1,166
43.715762483893585,45.69750122067789,62.37933230009393,68.26474476294239,3999,51914,10,1,167
43.715353962748225,45.6971932611401,62.37933230009393,68.26474476294239,3999,51914,10,1,168
43.715353962748225,45.696701033091024,62.37933230009393,68.26474476294239,3999,51914,10,1,169
43.715762483893585,45.696701033091024,62.37933230009393,68.26474476294239,3999,51914,10,1,170
43.715762483893585,45.69750122067789,62.37933230009393,68.26474476294239,3999,51914,10,1,171
43.715762483893585,45.69750122067789,62.37933230009393,68.26474476294239,3999,51914,10,1,172
43.715762483893585,45.69750122067789,62.37933230009393,68.26474476294239,3999,51914,10,1,173
43.715762483893585,45.69750122067789,62.37933230009393,68.26474476294239,3999,51914,10,1,174
43.71869702965533,45.69750122067789,62.37933230009393,68.26474476294239,3999,51914,10,1,175
43.71869702965533,45.699185342793925,62.37933230009393,68.26474476294239,3999,51914,10,1,176
43.71737357159972,45.699185342793925,62.37933230009393,68.26474476294239,3999,51914,10,1,177
43.71737357159972,45.69750122067789,62.37933230009393,68.26474476294239,3999,51914,10,1,178
43.715762483893585,45.69750122067789,62.37933230009393,68.26474476294239,3999,51914,10,1,179
43.715762483893585,45.69750122067789,62.37933230009393,68.26474476294239,3999,51914,10,1,180
43.715762483893585,45.69750122067789,62.37933230009393,68.26474476294239,3999,51914,10,1,181
43.714843576967,45.69750122067789,62.37933230009393,68.26474476294239,3999,51914,10,1,182
43.714843576967,45.69838535183635,62.37933230009393,68.26474476294239,3999,51914,10,1,183
43.718288697408305,45.69838535183635,62.37933230009393,68.26474476294239,3999,51914,10,1,184
43.718288697408305,45.69838535183635,62.37933230009393,68.26474476294239,3999,51914,10,1,185
43.715762483893585,45.69750122067789,62.37933230009393,68.26474476294239,3999,51914,10,1,186
43.715762483893585,45.69750122067789,62.37933230009393,68.26474476294239,3999,51914,10,1,187
43.716677359664104,45.696701033091024,62.37933230009393,68.26474476294239,3999,51914,10,1,188
43.716677359664104,45.696701033091024,62.37933230009393,68.26474476294239,3999,51914,10,1,189
43.71737357159972,45.69750122067789,62.37933230009393,68.26474476294239,3999,51914,10,1,190
43.71737357159972,45.699185342793925,62.37933230009393,68.26474476294239,3999,51914,10,1,191
43.71737357159972,45.699185342793925,62.37933230009393,68.26474476294239,3999,51914,10,1,192
43.718288697408305,45.700568796328184,62.37933230009393,68.26474476294239,3999,51914,10,1,127
43.715353962748225,45.6971932611401,62.37933230009393,68.26474476294239,0,51914,10,1,128
43.714843576967,45.696701033091024,62.37933230009393,68.26474476294239,0,51914,10,1,129
43.714843576967,45.696701033091024,62.37933230009393,68.26474476294239,0,51914,10,1,130
43.715353962748225,45.69750122067789,62.37933230009393,68.26474476294239,0,51914,10,1,131
43.715762483893585,45.69750122067789,62.37933230009393,68.26474476294239,0,51914,10,1,132
43.715762483893585,45.69750122067789,62.37933230009393,68.26474476294239,0,51914,10,1,133
43.718288697408305,45.700568796328184,62.37933230009393,68.26474476294239,0,51914,10,1,134
43.718288697408305,45.700568796328184,62.37933230009393,68.26474476294239,0,51914,10,1,135
43.716677359664104,45.700568796328184,62.37933230009393,68.26474476294239,0,51914,10,1,136
43.71443492463872,45.69838535183635,62.37933230009393,68.26474476294239,0,51914,10,1,137
43.716677359664104,45.700568796328184,62.37933230009393,68.26474476294239,0,51914,10,1,138
43.71443492463872,45.69838535183635,62.37933230009393,68.26474476294239,0,51914,10,1,139
43.713742949469406,45.69750122067789,62.37933230009393,68.26474476294239,0,51914,10,1,140
43.713742949469406,45.69750122067789,62.37933230009393,68.26474476294239,0,51914,10,1,141
43.714843576967,45.700568796328184,62.37933230009393,68.26474476294239,0,51914,10,1,142
43.714843576967,45.700568796328184,62.37933230009393,68.26474476294239,0,51914,10,1,143
43.714843576967,45.700568796328184,62.37933230009393,68.26474476294239,0,51914,10,1,144
43.71443492463872,45.70026104224617,62.37933230009393,68.26474476294239,0,51914,10,1,145
43.714843576967,45.700568796328184,62.37933230009393,68.26474476294239,0,51914,10,1,146
43.715762483893585,45.69750122067789,62.37933230009393,68.26474476294239,0,51914,10,1,147
43.715762483893585,45.699185342793925,62.37933230009393,68.26474476294239,0,51914,10,1,148
43.715762483893585,45.699185342793925,62.37933230009393,68.26474476294239,0,51914,10,1,149
43.715353962748225,45.699185342793925,62.37933230009393,68.26474476294239,0,51914,10,1,150
43.71869702965533,45.699185342793925,62.37933230009393,68.26474476294239,0,51914,10,1,151
43.715353962748225,45.699185342793925,62.37933230009393,68.26474476294239,0,51914,10,1,152
43.71737357159972,45.699185342793925,62.37933230009393,68.26474476294239,0,51914,10,1,153
43.71737357159972,45.70026104224617,62.37933230009393,68.26474476294239,0,51914,10,1,154
43.71737357159972,45.699185342793925,62.37933230009393,68.26474476294239,0,51914,10,1,155
43.716677359664104,45.70026104224617,62.37933230009393,68.26474476294239,0,51914,10,1,156
43.716677359664104,45.700568796328184,62.37933230009393,68.26474476294239,0,51914,10,1,157
43.718288697408305,45.700568796328184,62.37933230009393,68.26474476294239,0,51914,10,1,158
43.71869702965533,45.700568796328184,62.37933230009393,68.26474476294239,0,51914,10,1,159
43.718288697408305,45.700568796328184,62.37933230009393,68.26474476294239,0,51914,10,1,160
43.716677359664104,45.700568796328184,62.37933230009393,68.26474476294239,0,51914,10,1,161
43.716677359664104,45.700568796328184,62.37933230009393,68.26474476294239,0,51914,10,1,162
43.71869702965533,45.700568796328184,62.37933230009393,68.26474476294239,0,51914,10,1,163
43.71869702965533,45.700568796328184,62.37933230009393,68.26474476294239,0,51914,10,1,164
43.71777819864325,45.700568796328184,62.37933230009393,68.26474476294239,0,51914,10,1,165
43.71777819864325,45.70225325763404,62.37933230009393,68.26474476294239,0,51914,10,1,166
43.718288697408305,45.70225325763404,62.37933230009393,68.26474476294239,0,51914,10,1,167
43.71869702965533,45.700568796328184,62.37933230009393,68.26474476294239,0,51914,10,1,168
43.71869702965533,45.700568796328184,62.37933230009393,68.26474476294239,0,51914,10,1,169
43.71869702965533,45.700568796328184,62.37933230009393,68.26474476294239,0,51914,10,1,170
43.716454847120445,45.70225325763404,62.37933230009393,68.26474476294239,0,51914,10,1,171
43.71869702965533,45.700568796328184,62.37933230009393,68.26474476294239,0,51914,10,1,172
43.71869702965533,45.700568796328184,62.37933230009393,68.26474476294239,0,51914,10,1,173
43.71869702965533,45.700568796328184,62.37933230009393,68.26474476294239,0,51914,10,1,174
43.715353962748225,45.699185342793925,62.37933230009393,68.26474476294239,0,51914,10,1,87
43.715353962748225,45.696701033091024,62.37933230009393,68.26474476294239,0,51914,10,1,88
43.715353962748225,45.696701033091024,62.37933230009393,68.26474476294239,0,51914,10,1,89
43.71737357159972,45.69838535183635,62.37933230009393,68.26474476294239,0,51914,10,1,90
43.71737357159972,45.69838535183635,62.37933230009393,68.26474476294239,0,51914,10,1,91
43.716454847120445,45.69838535183635,62.37933230009393,68.26474476294239,0,51914,10,1,92
43.715762483893585,45.69750122067789,62.37933230009393,68.26474476294239,0,51914,10,1,93
43.715762483893585,45.69750122067789,62.37933230009393,68.26474476294239,0,51914,10,1,94
43.715762483893585,45.69750122067789,62.37933230009393,68.26474476294239,0,51914,10,1,95
43.716677359664104,45.700568796328184,62.37933230009393,68.26474476294239,0,51914,10,1,96
43.716677359664104,45.696701033091024,62.37933230009393,68.26474476294239,0,51914,10,1,97
43.716677359664104,45.69838535183635,62.37933230009393,68.26474476294239,0,51914,10,1,98
43.71443492463872,45.69838535183635,62.37933230009393,68.26474476294239,0,51914,10,1,99
43.71443492463872,45.69838535183635,62.37933230009393,68.26474476294239,0,51914,10,1,100
43.714843576967,45.696701033091024,62.37933230009393,68.26474476294239,0,51914,10,1,101
43.718288697408305,45.696701033091024,62.37933230009393,68.26474476294239,0,51914,10,1,102
43.71869702965533,45.696701033091024,62.37933230009393,68.26474476294239,0,51914,10,1,103
43.71869702965533,45.69946083907734,62.37933230009393,68.26474476294239,0,51914,10,1,104
43.718288697408305,45.70026104224617,62.37933230009393,68.26474476294239,0,51914,10,1,105
43.718288697408305,45.69946083907734,62.37933230009393,68.26474476294239,0,51914,10,1,106
43.718288697408305,45.696701033091024,62.37933230009393,68.26474476294239,0,51914,10,1,107
43.71869702965533,45.696701033091024,62.37933230009393,68.26474476294239,0,51914,10,1,108
43.718288697408305,45.69838535183635,62.37933230009393,68.26474476294239,0,51914,10,1,109
43.718288697408305,45.700568796328184,62.37933230009393,68.26474476294239,0,51914,10,1,110
43.71736973523787,45.69838535183635,62.37933230009393,68.26474476294239,0,51914,10,1,111
43.715353962748225,45.6971932611401,62.37933230009393,68.26474476294239,0,51914,10,1,112
43.715353962748225,45.696701033091024,62.37933230009393,68.26474476294239,0,51914,10,1,113
43.716677359664104,45.696701033091024,62.37933230009393,68.26474476294239,0,51914,10,1,114
43.716677359664104,45.696701033091024,62.37933230009393,68.26474476294239,0,51914,10,1,115
43.71869702965533,45.696701033091024,62.37933230009393,68.26474476294239,0,51914,10,1,116
43.714843576967,45.696701033091024,62.37933230009393,68.26474476294239,0,51914,10,1,117
43.715762483893585,45.696701033091024,62.37933230009393,68.26474476294239,0,51914,10,1,118
43.715762483893585,45.69750122067789,62.37933230009393,68.26474476294239,0,51914,10,1,119
43.715762483893585,45.69750122067789,62.37933230009393,68.26474476294239,0,51914,10,1,120
43.71869702965533,45.696701033091024,62.37933230009393,68.26474476294239,0,51914,10,1,121
43.71869702965533,45.696701033091024,62.37933230009393,68.26474476294239,0,51914,10,1,122
43.71443492463872,45.696701033091024,62.37933230009393,68.26474476294239,0,51914,10,1,123
43.71443492463872,45.696701033091024,62.37933230009393,68.26474476294239,0,51914,10,1,124
43.714843576967,45.696701033091024,62.37933230009393,68.26474476294239,0,51914,10,1,125
43.71869702965533,45.696701033091024,62.37933230009393,68.26474476294239,0,51914,10,1,126
43.71869702965533,45.696701033091024,62.37933230009393,68.26474476294239,0,51914,10,1,127
43.71869702965533,45.696701033091024,62.37933230009393,68.26474476294239,0,51914,10,1,128
43.71869702965533,45.696701033091024,62.37933230009393,68.26474476294239,0,51914,10,1,129
43.71869702965533,45.69750122067789,62.37933230009393,68.26474476294239,0,51914,10,1,130
43.718288697408305,45.69838535183635,62.37933230009393,68.26474476294239,0,51914,10,1,131
43.71869702965533,45.700568796328184,62.37933230009393,68.26474476294239,0,51914,10,1,132
43.718288697408305,45.700568796328184,62.37933230009393,68.26474476294239,0,51914,10,1,133
43.71869702965533,45.700568796328184,62.37933230009393,68.26474476294239,0,51914,10,1,30
43.713742949469406,45.696701033091024,62.37933230009393,68.26474476294239,3999,51914,10,1,31
43.715353962748225,45.696701033091024,62.37933230009393,68.26474476294239,3999,51914,10,1,32
43.715353962748225,45.696701033091024,62.37933230009393,68.26474476294239,3999,51914,10,1,33
43.71869702965533,45.696701033091024,62.37933230009393,68.26474476294239,3999,51914,10,1,34
43.71869702965533,45.696701033091024,62.37933230009393,68.26474476294239,3999,51914,10,1,35
43.71869702965533,45.696701033091024,62.37933230009393,68.26474476294239,3999,51914,10,1,36
43.71869702965533,45.696701033091024,62.37933230009393,68.26474476294239,3999,51914,10,1,37
43.71869702965533,45.696701033091024,62.37933230009393,68.26474476294239,3999,51914,10,1,38
43.718288697408305,45.696701033091024,62.37933230009393,68.26474476294239,3999,51914,10,1,39
43.718288697408305,45.696701033091024,62.37933230009393,68.26474476294239,3999,51914,10,1,40
43.715353962748225,45.69639296782025,62.37933230009393,68.26474476294239,3999,51914,10,1,41
43.715353962748225,45.69639296782025,62.37933230009393,68.26474476294239,3999,51914,10,1,42
43.714843576967,45.69639296782025,62.37933230009393,68.26474476294239,3999,51914,10,1,43
43.715762483893585,45.69639296782025,62.37933230009393,68.26474476294239,3999,51914,10,1,44
43.715762483893585,45.69639296782025,62.37933230009393,68.26474476294239,3999,51914,10,1,45
43.718288697408305,45.69639296782025,62.37933230009393,68.26474476294239,3999,51914,10,1,46
43.718288697408305,45.69639296782025,62.37933230009393,68.26474476294239,3999,51914,10,1,47
43.713742949469406,45.69332544637147,62.37933230009393,68.26474476294239,3999,51914,10,1,48
43.713742949469406,45.69332544637147,62.37933230009393,68.26474476294239,3999,51914,10,1,49
43.71282372893415,45.693633717058,62.37933230009393,68.26474476294239,3999,51914,10,1,50
43.713742949469406,45.693633717058,62.37933230009393,68.26474476294239,3999,51914,10,1,51
43.713742949469406,45.693633717058,62.37933230009393,68.26474476294239,3999,51914,10,1,52
43.715762483893585,45.693633717058,62.37933230009393,68.26474476294239,3999,51914,10,1,53
43.715762483893585,45.693633717058,62.37933230009393,68.26474476294239,3999,51914,10,1,54
43.715762483893585,45.693633717058,62.37933230009393,68.26474476294239,3999,51914,10,1,55
43.715762483893585,45.693633717058,62.37933230009393,68.26474476294239,3999,51914,10,1,56
43.715762483893585,45.693633717058,62.37933230009393,68.26474476294239,3999,51914,10,1,57
43.715762483893585,45.693633717058,62.37933230009393,68.26474476294239,3999,51914,10,1,58
43.715762483893585,45.696701033091024,62.37933230009393,68.26474476294239,3999,51914,10,1,59
43.715762483893585,45.69639296782025,62.37933230009393,68.26474476294239,3999,51914,10,1,60
43.715762483893585,45.69639296782025,62.37933230009393,68.26474476294239,3999,51914,10,1,61
43.715762483893585,45.693633717058,62.37933230009393,68.26474476294239,3999,51914,10,1,62
43.715762483893585,45.693633717058,62.37933230009393,68.26474476294239,3999,51914,10,1,63
43.715762483893585,45.693633717058,62.37933230009393,68.26474476294239,3999,51914,10,1,64
43.715762483893585,45.693633717058,62.37933230009393,68.26474476294239,3999,51914,10,1,65
43.715762483893585,45.693633717058,62.37933230009393,68.26474476294239,3999,51914,10,1,66
43.715762483893585,45.693633717058,62.37933230009393,68.26474476294239,3999,51914,10,1,67
43.715762483893585,45.693633717058,62.37933230009393,68.26474476294239,3999,51914,10,1,68
43.715762483893585,45.693633717058,62.37933230009393,68.26474476294239,3999,51914,10,1,69
43.718288697408305,45.69639296782025,62.37933230009393,68.26474476294239,3999,51914,10,1,70
43.718288697408305,45.696701033091024,62.37933230009393,68.26474476294239,3999,51914,10,1,71
43.715762483893585,45.69750122067789,62.37933230009393,68.26474476294239,3999,51914,10,1,72
43.715762483893585,45.69750122067789,62.37933230009393,68.26474476294239,3999,51914,10,1,73
43.715762483893585,45.69639296782025,62.37933230009393,68.26474476294239,3999,51914,10,1,74
43.715762483893585,45.693633717058,62.37933230009393,68.26474476294239,3999,51914,10,1,75
43.715762483893585,45.693633717058,62.37933230009393,68.26474476294239,3999,51914,10,1,76
43.715353962748225,45.693633717058,62.37933230009393,68.26474476294239,3999,51914,10,1,77
43.715353962748225,45.693633717058,62.37933230009393,68.26474476294239,3999,51914,10,1,219
43.715353962748225,45.69332544637147,62.37933230009393,68.26474476294239,3999,51914,10,1,220
43.715353962748225,45.69332544637147,62.37933230009393,68.26474476294239,3999,51914,10,1,221
43.715762483893585,45.69750122067789,62.37933230009393,68.26474476294239,3999,51914,10,1,222
43.715762483893585,45.69750122067789,62.37933230009393,68.26474476294239,3999,51914,10,1,223
43.715353962748225,45.696701033091024,62.37933230009393,68.26474476294239,3999,51914,10,1,224
43.715353962748225,45.693633717058,62.37933230009393,68.26474476294239,3999,51914,10,1,225
43.715353962748225,45.69332544637147,62.37933230009393,68.26474476294239,3999,51914,10,1,226
43.715762483893585,45.693633717058,62.37933230009393,68.26474476294239,3999,51914,10,1,227
43.71869702965533,45.69639296782025,62.37933230009393,68.26474476294239,3999,51914,10,1,228
43.71869702965533,45.69639296782025,62.37933230009393,68.26474476294239,3999,51914,10,1,229
43.71869702965533,45.696701033091024,62.37933230009393,68.26474476294239,3999,51914,10,1,230
43.715762483893585,45.693633717058,62.37933230009393,68.26474476294239,3999,51914,10,1,231
43.715762483893585,45.69332544637147,62.37933230009393,68.26474476294239,3999,51914,10,1,232
43.715762483893585,45.69332544637147,62.37933230009393,68.26474476294239,3999,51914,10,1,233
43.715353962748225,45.69332544637147,62.37933230009393,68.26474476294239,3999,51914,10,1,234
43.71869702965533,45.696701033091024,62.37933230009393,68.26474476294239,3999,51914,10,1,235
43.715762483893585,45.693633717058,62.37933230009393,68.26474476294239,3999,51914,10,1,236
43.715762483893585,45.693633717058,62.37933230009393,68.26474476294239,3999,51914,10,1,237
43.715762483893585,45.693633717058,62.37933230009393,68.26474476294239,3999,51914,10,1,238
43.715762483893585,45.693633717058,62.37933230009393,68.26474476294239,3999,51914,10,1,239
43.715762483893585,45.693633717058,62.37933230009393,68.26474476294239,3999,51914,10,1,240
43.714843576967,45.693633717058,62.37933230009393,68.26474476294239,3999,51914,10,1,241
43.715762483893585,45.693633717058,62.37933230009393,68.26474476294239,3999,51914,10,1,242
43.715762483893585,45.693633717058,62.37933230009393,68.26474476294239,3999,51914,10,1,243
43.715762483893585,45.693633717058,62.37933230009393,68.26474476294239,3999,51914,10,1,244
43.715762483893585,45.693633717058,62.37933230009393,68.26474476294239,3999,51914,10,1,245
43.714843576967,45.696701033091024,62.37933230009393,68.26474476294239,3999,51914,10,1,246
43.714843576967,45.696701033091024,62.37933230009393,68.26474476294239,3999,51914,10,1,247
43.714843576967,45.696701033091024,62.37933230009393,68.26474476294239,3999,51914,10,1,248
43.715762483893585,45.693633717058,62.37933230009393,68.26474476294239,3999,51914,10,1,249
43.715762483893585,45.693633717058,62.37933230009393,68.26474476294239,3999,51914,10,1,250
43.715762483893585,45.693633717058,62.37933230009393,68.26474476294239,3999,51914,10,1,251
43.715762483893585,45.693633717058,62.37933230009393,68.26474476294239,3999,51914,10,1,252
43.715762483893585,45.693633717058,62.37933230009393,68.26474476294239,3999,51914,10,1,253
43.715762483893585,45.693633717058,62.37933230009393,68.26474476294239,3999,51914,10,1,254
43.715353962748225,45.69332544637147,62.37933230009393,68.26474476294239,3999,51914,10,1,255
43.715353962748225,45.69332544637147,62.37933230009393,68.26474476294239,3999,51914,10,1,0
43.715353962748225,45.69332544637147,62.37933230009393,68.26474476294239,3999,51914,10,1,1
43.715353962748225,45.696701033091024,62.37933230009393,68.26474476294239,3999,51914,10,1,2
43.714843576967,45.696701033091024,62.37933230009393,68.26474476294239,3999,51914,10,1,3
43.715353962748225,45.693633717058,62.37933230009393,68.26474476294239,3999,51914,10,1,4
43.715762483893585,45.693633717058,62.37933230009393,68.26474476294239,3999,51914,10,1,5
43.715762483893585,45.696701033091024,62.37933230009393,68.26474476294239,3999,51914,10,1,6
43.718288697408305,45.696701033091024,62.37933230009393,68.26474476294239,3999,51914,10,1,7
43.71737357159972,45.69750122067789,62.37933230009393,68.26474476294239,3999,51914,10,1,8
43.71737357159972,45.69750122067789,62.37933230009393,68.26474476294239,3999,51914,10,1,9
43.715762483893585,45.69750122067789,62.37933230009393,68.26474476294239,3999,51914,10,1,10
43.715353962748225,45.693633717058,62.37933230009393,68.26474476294239,3999,51914,10,1,147
43.713742949469406,45.693633717058,62.37933230009393,68.26474476294239,0,51914,10,1,148
43.715353962748225,45.693633717058,62.37933230009393,68.26474476294239,0,51914,10,1,149
43.716677359664104,45.696701033091024,62.37933230009393,68.26474476294239,0,51914,10,1,150
43.718288697408305,45.696701033091024,62.37933230009393,68.26474476294239,0,51914,10,1,151
43.718288697408305,45.69639296782025,62.37933230009393,68.26474476294239,0,51914,10,1,152
43.713742949469406,45.693633717058,62.37933230009393,68.26474476294239,0,51914,10,1,153
43.713742949469406,45.693633717058,62.37933230009393,68.26474476294239,0,51914,10,1,154
43.715762483893585,45.693633717058,62.37933230009393,68.26474476294239,0,51914,10,1,155
43.715762483893585,45.69750122067789,62.37933230009393,68.26474476294239,0,51914,10,1,156
43.715762483893585,45.69750122067789,62.37933230009393,68.26474476294239,0,51914,10,1,157
43.715762483893585,45.69750122067789,62.37933230009393,68.26474476294239,0,51914,10,1,158
43.715762483893585,45.69639296782025,62.37933230009393,68.26474476294239,0,51914,10,1,159
43.718288697408305,45.696701033091024,62.37933230009393,68.26474476294239,0,51914,10,1,160
43.71869702965533,45.696701033091024,62.37933230009393,68.26474476294239,0,51914,10,1,161
43.71869702965533,45.696701033091024,62.37933230009393,68.26474476294239,0,51914,10,1,162
43.71869702965533,45.696701033091024,62.37933230009393,68.26474476294239,0,51914,10,1,163
43.715762483893585,45.69750122067789,62.37933230009393,68.26474476294239,0,51914,10,1,164
43.71869702965533,45.696701033091024,62.37933230009393,68.26474476294239,0,51914,10,1,165
43.715762483893585,45.696701033091024,62.37933230009393,68.26474476294239,0,51914,10,1,166
43.715353962748225,45.69332544637147,62.37933230009393,68.26474476294239,0,51914,10,1,167
43.715353962748225,45.69332544637147,62.37933230009393,68.26474476294239,0,51914,10,1,168
43.715353962748225,45.696701033091024,62.37933230009393,68.26474476294239,0,51914,10,1,169
43.714843576967,45.696701033091024,62.37933230009393,68.26474476294239,0,51914,10,1,170
43.715762483893585,45.696701033091024,62.37933230009393,68.26474476294239,0,51914,10,1,171
43.715353962748225,45.6953176966422,62.37933230009393,68.26474476294239,0,51914,10,1,172
43.715353962748225,45.6953176966422,62.37933230009393,68.26474476294239,0,51914,10,1,173
43.715353962748225,45.6953176966422,62.37933230009393,68.26474476294239,0,51914,10,1,174
43.714843576967,45.696701033091024,62.37933230009393,68.26474476294239,0,51914,10,1,175
43.715762483893585,45.696701033091024,62.37933230009393,68.26474476294239,0,51914,10,1,176
43.714843576967,45.696701033091024,62.37933230009393,68.26474476294239,0,51914,10,1,177
43.715762483893585,45.69750122067789,62.37933230009393,68.26474476294239,0,51914,10,1,178
43.716454847120445,45.69838535183635,62.37933230009393,68.26474476294239,0,51914,10,1,179
43.716454847120445,45.69838535183635,62.37933230009393,68.26474476294239,0,51914,10,1,180
43.71443492463872,45.696701033091024,62.37933230009393,68.26474476294239,0,51914,10,1,181
43.71443492463872,45.69639296782025,62.37933230009393,68.26474476294239,0,51914,10,1,182
43.713742949469406,45.693633717058,62.37933230009393,68.26474476294239,0,51914,10,1,183
43.715762483893585,45.693633717058,62.37933230009393,68.26474476294239,0,51914,10,1,184
43.715353962748225,45.696701033091024,62.37933230009393,68.26474476294239,0,51914,10,1,185
43.715353962748225,45.6971932611401,62.37933230009393,68.26474476294239,0,51914,10,1,186
43.715353962748225,45.69750122067789,62.37933230009393,68.26474476294239,0,51914,10,1,187
43.715353962748225,45.69750122067789,62.37933230009393,68.26474476294239,0,51914,10,1,188
43.715762483893585,45.69750122067789,62.37933230009393,68.26474476294239,0,51914,10,1,189
43.715762483893585,45.69750122067789,62.37933230009393,68.26474476294239,0,51914,10,1,190
43.715762483893585,45.69750122067789,62.37933230009393,68.26474476294239,0,51914,10,1,191
43.715353962748225,45.69750122067789,62.37933230009393,68.26474476294239,0,51914,10,1,192
43.715353962748225,45.696701033091024,62.37933230009393,68.26474476294239,0,51914,10,1,193
43.715762483893585,45.693633717058,62.37933230009393,68.26474476294239,0,51914,10,1,194
43.715762483893585,45.693633717058,62.37933230009393,68.26474476294239,0,51914,10,1,195
43.715762483893585,45.693633717058,62.37933230009393,68.26474476294239,0,51914,10,1,196
43.715762483893585,45.693633717058,62.37933230009393,68.26474476294239,0,51914,10,1,197
43.715353962748225,45.693633717058,62.37933230009393,68.26474476294239,0,51914,10,1,198
43.715762483893585,45.693633717058,62.37933230009393,68.26474476294239,0,51914,10,1,199
43.715762483893585,45.693633717058,62.37933230009393,68.26474476294239,0,51914,10,1,200
43.715762483893585,45.694708722508814,62.37933230009393,68.26474476294239,0,51914,10,1,201
43.715762483893585,45.69550921243695,62.37933230009393,68.26474476294239,0,51914,10,1,202
43.715353962748225,45.69550921243695,62.37933230009393,68.26474476294239,0,51914,10,1,203
43.715353962748225,45.693633717058,62.37933230009393,68.26474476294239,0,51914,10,1,204
43.715353962748225,45.69332544637147,62.37933230009393,68.26474476294239,0,51914,10,1,205
43.715762483893585,45.693633717058,62.37933230009393,68.26474476294239,0,51914,10,1,206
43.715353962748225,45.69332544637147,62.37933230009393,68.26474476294239,0,51914,10,1,207
43.71869702965533,45.696701033091024,62.37933230009393,68.26474476294239,0,51914,10,1,208
43.715762483893585,45.693633717058,62.37933230009393,68.26474476294239,0,51914,10,1,209
43.715762483893585,45.693633717058,62.37933230009393,68.26474476294239,0,51914,10,1,210
43.715762483893585,45.693633717058,62.37933230009393,68.26474476294239,0,51914,10,1,211
43.715762483893585,45.69639296782025,62.37933230009393,68.26474476294239,0,51914,10,1,212
43.715762483893585,45.696701033091024,62.37933230009393,68.26474476294239,0,51914,10,1,213
43.718288697408305,45.696701033091024,62.37933230009393,68.26474476294239,0,51914,10,1,214
43.71737357159972,45.696701033091024,62.37933230009393,68.26474476294239,0,51914,10,1,215
43.71737357159972,45.696701033091024,62.37933230009393,68.26474476294239,0,51914,10,1,216
43.716677359664104,45.696701033091024,62.37933230009393,68.26474476294239,0,51914,10,1,217
43.715762483893585,45.69750122067789,62.37933230009393,68.26474476294239,0,51914,10,1,218
43.715762483893585,45.69750122067789,62.37933230009393,68.26474476294239,0,51914,10,1,219
43.715762483893585,45.69750122067789,62.37933230009393,68.26474476294239,0,51914,10,1,220
43.715762483893585,45.69750122067789,62.375318115385156,68.26474476294239,0,51914,10,2,248
43.715762483893585,45.69750122067789,62.37963426180669,68.26736346590587,0,51914,10,2,249
43.715762483893585,45.69750122067789,62.37933230009393,68.2667969734492,0,51914,10,2,250
43.715762483893585,45.69750122067789,62.37963426180669,68.26736346590587,0,51914,10,2,251
43.715762483893585,45.69750122067789,62.37933230009393,68.2667969734492,0,51914,10,2,252
43.715762483893585,45.69750122067789,62.37933230009393,68.2667969734492,0,51914,10,2,253
43.715762483893585,45.69750122067789,62.37933230009393,68.2667969734492,0,51914,10,2,254
43.715762483893585,45.69750122067789,62.37963426180669,68.26736346590587,0,51914,10,2,255
43.715762483893585,45.69750122067789,62.38202699372366,68.26792990735619,0,51914,10,2,0
43.715762483893585,45.69750122067789,62.38202699372366,68.26792990735619,0,51914,10,2,1
43.715762483893585,45.69750122067789,62.37561978854018,68.26736346590587,0,51914,10,2,2
43.715762483893585,45.69750122067789,62.37561978854018,68.26736346590587,0,51914,10,2,3
43.715762483893585,45.69750122067789,62.37933230009393,68.26474476294239,0,51914,10,2,4
43.715762483893585,45.69750122067789,62.37963426180669,68.26736346590587,0,51914,10,2,5
43.715762483893585,45.69750122067789,62.37933230009393,68.26474476294239,0,51914,10,2,6
43.715762483893585,45.69750122067789,62.37963426180669,68.26736346590587,0,51914,10,2,7
43.715762483893585,45.69750122067789,62.37736937829646,68.2625966419133,0,51914,10,2,8
43.715762483893585,45.69750122067789,62.37963426180669,68.26736346590587,0,51914,10,2,9
43.715762483893585,45.69750122067789,62.38172523282841,68.26736346590587,0,51914,10,2,10
43.715762483893585,45.69750122067789,62.38172523282841,68.26736346590587,0,51914,10,2,11
43.718288697408305,45.69838535183635,62.38172523282841,68.26736346590587,0,51914,10,1,13
43.715762483893585,45.69750122067789,62.38172523282841,68.26736346590587,0,51914,10,1,14
43.71657986380049,45.694685687951264,62.38172523282841,68.26736346590587,0,51914,10,1,15
43.71657986380049,45.694685687951264,62.38172523282841,68.26736346590587,0,51914,10,1,16
43.71657986380049,45.69750122067789,62.38172523282841,68.26736346590587,0,51914,10,1,17
43.713742949469406,45.69750122067789,62.38172523282841,68.26736346590587,0,51914,10,1,18
43.713742949469406,45.69750122067789,62.38172523282841,68.26736346590587,0,51914,10,1,19
43.715353962748225,45.69750122067789,62.38172523282841,68.26736346590587,0,51914,10,1,20
43.715353962748225,45.6971932611401,62.38172523282841,68.26736346590587,0,51914,10,1,21
43.715353962748225,45.6971932611401,62.38172523282841,68.26736346590587,0,51914,10,1,22
43.714843576967,45.696701033091024,62.38172523282841,68.26736346590587,0,51914,10,1,23
43.715762483893585,45.69750122067789,62.38172523282841,68.26736346590587,0,51914,10,1,24
43.716677359664104,45.696701033091024,62.38172523282841,68.26736346590587,0,51914,10,1,25
43.718288697408305,45.69838535183635,62.38172523282841,68.26736346590587,0,51914,10,1,26
43.716677359664104,45.6971932611401,62.38172523282841,68.26736346590587,0,51914,10,1,27
43.71869702965533,45.69838535183635,62.38172523282841,68.26736346590587,0,51914,10,1,28
43.718288697408305,45.6971932611401,62.38172523282841,68.26736346590587,0,51914,10,1,29
43.71869702965533,45.696701033091024,62.38172523282841,68.26736346590587,0,51914,10,1,30
43.718288697408305,45.696701033091024,62.38172523282841,68.26736346590587,0,51914,10,1,31
43.71737357159972,45.6971932611401,62.38172523282841,68.26736346590587,0,51914,10,1,32
43.716677359664104,45.6971932611401,62.38172523282841,68.26736346590587,0,51914,10,1,33
43.71443492463872,45.696701033091024,62.38172523282841,68.26736346590587,0,51914,10,1,34
43.716677359664104,45.696701033091024,62.38172523282841,68.26736346590587,0,51914,10,1,35
43.71869702965533,45.696701033091024,62.38172523282841,68.26736346590587,0,51914,10,1,36
43.71869702965533,45.696701033091024,62.38172523282841,68.26736346590587,0,51914,10,1,37
43.715762483893585,45.69750122067789,62.38172523282841,68.26736346590587,0,51914,10,1,38
43.715762483893585,45.69750122067789,62.38172523282841,68.26736346590587,3999,51914,10,2,181
43.715762483893585,45.69750122067789,62.37963426180669,68.26531141509702,3999,51914,10,2,182
43.715762483893585,45.69750122067789,62.37963426180669,68.26531141509702,3999,51914,10,2,183
43.715762483893585,45.69750122067789,62.377710894131546,68.26332908294297,3999,51914,10,2,184
43.715762483893585,45.69750122067789,62.37963426180669,68.26332908294297,3999,51914,10,2,185
43.715762483893585,45.69750122067789,62.378990921298005,68.26127691085367,3999,51914,10,2,186
43.715762483893585,45.69750122067789,62.378990921298005,68.25997848744966,3999,51914,10,2,187
43.715762483893585,45.69750122067789,62.378990921298005,68.25997848744966,3999,51914,10,2,188
43.715762483893585,45.69750122067789,62.378990921298005,68.26203055467022,3999,51914,10,2,189
43.715762483893585,45.69750122067789,62.38172523282841,68.26736346590587,3999,51914,10,2,190
43.715762483893585,45.69750122067789,62.38172523282841,68.26736346590587,3999,51914,10,2,191
43.715762483893585,45.69750122067789,62.37963426180669,68.26736346590587,3999,51914,10,2,192
43.715762483893585,45.69750122067789,62.37527855327849,68.2625966419133,3999,51914,10,2,193
43.715762483893585,45.69750122067789,62.37527855327849,68.2625966419133,3999,51914,10,2,194
43.715762483893585,45.69750122067789,62.37561978854018,68.26332908294297,3999,51914,10,2,195
43.715762483893585,45.69750122067789,62.37561978854018,68.26332908294297,3999,51914,10,2,196
43.715762483893585,45.69750122067789,62.37963426180669,68.26332908294297,3999,51914,10,2,197
43.715762483893585,45.69750122067789,62.37527855327849,68.2625966419133,3999,51914,10,2,198
43.715762483893585,45.69750122067789,62.37527855327849,68.26054473439058,3999,51914,10,2,199
43.715762483893585,45.69750122067789,62.37527855327849,68.26054473439058,3999,51914,10,2,200
43.715762483893585,45.69750122067789,62.37527855327849,68.26071053473648,3999,51914,10,2,201
43.715762483893585,45.69750122067789,62.37933230009393,68.2625966419133,3999,51914,10,2,202
43.715762483893585,45.69750122067789,62.37963426180669,68.26736346590587,3999,51914,10,2,203
43.715762483893585,45.69750122067789,62.38172523282841,68.26736346590587,3999,51914,10,2,204
43.715762483893585,45.69750122067789,62.38172523282841,68.26736346590587,3999,51914,10,2,205
43.715762483893585,45.69750122067789,62.38172523282841,68.26736346590587,3999,51914,10,2,206
43.715762483893585,45.69750122067789,62.37963426180669,68.26736346590587,3999,51914,10,2,207
43.715762483893585,45.69750122067789,62.37963426180669,68.26736346590587,3999,51914,10,2,208
43.715762483893585,45.69750122067789,62.37963426180669,68.2625966419133,3999,51914,10,2,209
43.715762483893585,45.69750122067789,62.37527855327849,68.2625966419133,3999,51914,10,2,210
43.715762483893585,45.69750122067789,62.37527855327849,68.2625966419133,3999,51914,10,2,211
43.715762483893585,45.69750122067789,62.37527855327849,68.2625966419133,3999,51914,10,1,213
43.719128125200385,45.69750122067789,62.37527855327849,68.2625966419133,3999,51914,10,1,214
43.7195140317685,45.69731745979851,62.37527855327849,68.2625966419133,3999,51914,10,1,215
43.719128125200385,45.69731745979851,62.37527855327849,68.2625966419133,3999,51914,10,1,216
43.71777819864325,45.69731745979851,62.37527855327849,68.2625966419133,3999,51914,10,1,217
43.714151317974974,45.693942086477286,62.37527855327849,68.2625966419133,3999,51914,10,1,218
43.714151317974974,45.693942086477286,62.37527855327849,68.2625966419133,3999,51914,10,1,219
43.714843576967,45.696701033091024,62.37527855327849,68.2625966419133,3999,51914,10,1,220
43.714843576967,45.696701033091024,62.37527855327849,68.2625966419133,3999,51914,10,1,221
43.716677359664104,45.696701033091024,62.37527855327849,68.2625966419133,3999,51914,10,1,222
43.715353962748225,45.6953176966422,62.37527855327849,68.2625966419133,3999,51914,10,1,223
43.715762483893585,45.6953176966422,62.37527855327849,68.2625966419133,3999,51914,10,1,224
43.715353962748225,45.693633717058,62.37527855327849,68.2625966419133,3999,51914,10,1,225
43.715353962748225,45.693633717058,62.37527855327849,68.2625966419133,3999,51914,10,1,226
43.714843576967,45.693633717058,62.37527855327849,68.2625966419133,3999,51914,10,1,227
43.714843576967,45.693633717058,62.38172523282841,68.26332908294297,3999,51914,10,2,114
43.714843576967,45.693633717058,62.38172523282841,68.26332908294297,3999,51914,10,2,115
43.714843576967,45.693633717058,62.38172523282841,68.26332908294297,3999,51914,10,2,116
43.714843576967,45.693633717058,62.37963426180669,68.26332908294297,3999,51914,10,2,117
43.714843576967,45.693633717058,62.37963426180669,68.26531141509702,3999,51914,10,2,118
43.714843576967,45.693633717058,62.37933230009393,68.26332908294297,3999,51914,10,2,119
43.714843576967,45.693633717058,62.37963426180669,68.26127691085367,3999,51914,10,2,120
43.714843576967,45.693633717058,62.37933230009393,68.26127691085367,3999,51914,10,2,121
43.714843576967,45.693633717058,62.377710894131546,68.2625966419133,3999,51914,10,2,122
43.714843576967,45.693633717058,62.377710894131546,68.2625966419133,3999,51914,10,2,123
43.714843576967,45.693633717058,62.377710894131546,68.2625966419133,3999,51914,10,2,124
43.714843576967,45.693633717058,62.37963426180669,68.26127691085367,3999,51914,10,2,125
43.714843576967,45.693633717058,62.37963426180669,68.2625966419133,3999,51914,10,2,126
43.714843576967,45.693633717058,62.37963426180669,68.2625966419133,3999,51914,10,2,127
43.714843576967,45.693633717058,62.377710894131546,68.26332908294297,3999,51914,10,2,128
43.714843576967,45.693633717058,62.377710894131546,68.26332908294297,3999,51914,10,2,129
43.714843576967,45.693633717058,62.377710894131546,68.26332908294297,3999,51914,10,2,130
43.714843576967,45.693633717058,62.37754354914297,68.26127691085367,3999,51914,10,2,131
43.714843576967,45.693633717058,62.37754354914297,68.26127691085367,3999,51914,10,2,132
43.714843576967,45.693633717058,62.37933230009393,68.26474476294239,3999,51914,10,2,133
43.714843576967,45.693633717058,62.37933230009393,68.26474476294239,3999,51914,10,2,134
43.714843576967,45.693633717058,62.37724140928085,68.26071053473648,3999,51914,10,2,135
43.714843576967,45.693633717058,62.37724140928085,68.26071053473648,3999,51914,10,2,136
43.714843576967,45.693633717058,62.37933230009393,68.26071053473648,3999,51914,10,2,137
43.714843576967,45.693633717058,62.37933230009393,68.26071053473648,3999,51914,10,2,138
43.714843576967,45.693633717058,62.375318115385156,68.26071053473648,3999,51914,10,2,139
43.714843576967,45.693633717058,62.37527855327849,68.26054473439058,3999,51914,10,2,140
43.714843576967,45.693633717058,62.37527855327849,68.26054473439058,3999,51914,10,2,141
43.714843576967,45.693633717058,62.37527855327849,68.2625966419133,3999,51914,10,2,142
43.714843576967,45.693633717058,62.37561978854018,68.2625966419133,3999,51914,10,2,143
43.714843576967,45.693633717058,62.37561978854018,68.26127691085367,3999,51914,10,2,144
43.714843576967,45.693633717058,62.37963426180669,68.26127691085367,3999,51914,10,2,145
43.714843576967,45.693633717058,62.37561978854018,68.2625966419133,3999,51914,10,2,146
43.714843576967,45.693633717058,62.37963426180669,68.26531141509702,3999,51914,10,2,147
43.714843576967,45.693633717058,62.37736937829646,68.2625966419133,3999,51914,10,2,148
43.714843576967,45.693633717058,62.37736937829646,68.2625966419133,3999,51914,10,2,149
43.714843576967,45.693633717058,62.37736937829646,68.2625966419133,3999,51914,10,2,150
43.714843576967,45.693633717058,62.37736937829646,68.2625966419133,3999,51914,10,2,151
43.714843576967,45.693633717058,62.37736937829646,68.2625966419133,3999,51914,10,2,152
43.714843576967,45.693633717058,62.37736937829646,68.2625966419133,3999,51914,10,2,153
43.714843576967,45.693633717058,62.377710894131546,68.26332908294297,3999,51914,10,2,154
43.714843576967,45.693633717058,62.377710894131546,68.26332908294297,3999,51914,10,2,155
43.715353962748225,45.696701033091024,62.377710894131546,68.26332908294297,3999,51914,10,1,157
43.716194848421665,45.696701033091024,62.377710894131546,68.26332908294297,3999,51914,10,1,158
43.716194848421665,45.69731745979851,62.377710894131546,68.26332908294297,3999,51914,10,1,159
43.716194848421665,45.69731745979851,62.37963426180669,68.26531141509702,0,51914,10,2,68
43.716194848421665,45.69731745979851,62.37963426180669,68.26332908294297,0,51914,10,2,69
43.716194848421665,45.69731745979851,62.37963426180669,68.26332908294297,0,51914,10,2,70
43.716194848421665,45.69731745979851,62.37963426180669,68.26332908294297,0,51914,10,2,71
43.716194848421665,45.69731745979851,62.37963426180669,68.26531141509702,0,51914,10,2,72
43.716194848421665,45.69731745979851,62.37963426180669,68.26531141509702,0,51914,10,2,73
43.716194848421665,45.69731745979851,62.37527855327849,68.2625966419133,0,51914,10,2,74
43.716194848421665,45.69731745979851,62.37527855327849,68.2625966419133,0,51914,10,2,75
43.716194848421665,45.69731745979851,62.37963426180669,68.26531141509702,0,51914,10,2,76
43.716194848421665,45.69731745979851,62.37963426180669,68.26736346590587,0,51914,10,2,77
43.716194848421665,45.69731745979851,62.37963426180669,68.26736346590587,0,51914,10,2,78
43.716194848421665,45.69731745979851,62.37963426180669,68.26332908294297,0,51914,10,2,79
43.716194848421665,45.69731745979851,62.37963426180669,68.26332908294297,0,51914,10,2,80
43.716194848421665,45.69731745979851,62.37963426180669,68.26332908294297,0,51914,10,2,81
43.716194848421665,45.69731745979851,62.37527855327849,68.2625966419133,0,51914,10,2,82
43.716194848421665,45.69731745979851,62.37527855327849,68.2625966419133,0,51914,10,2,83
43.716194848421665,45.69731745979851,62.37724140928085,68.26071053473648,0,51914,10,2,84
43.716194848421665,45.69731745979851,62.37963426180669,68.26531141509702,0,51914,10,2,85
43.716194848421665,45.69731745979851,62.37963426180669,68.26332908294297,0,51914,10,2,86
43.716194848421665,45.69731745979851,62.37963426180669,68.26531141509702,0,51914,10,2,87
43.716194848421665,45.69731745979851,62.37963426180669,68.26736346590587,0,51914,10,2,88
43.716194848421665,45.69731745979851,62.37963426180669,68.26736346590587,0,51914,10,2,89
43.716194848421665,45.69731745979851,62.37561978854018,68.26736346590587,0,51914,10,2,90
43.716194848421665,45.69731745979851,62.37963426180669,68.26531141509702,0,51914,10,2,91
43.716194848421665,45.69731745979851,62.37963426180669,68.26531141509702,0,51914,10,2,92
43.716194848421665,45.69731745979851,62.37963426180669,68.26531141509702,0,51914,10,2,93
43.716194848421665,45.69731745979851,62.37933230009393,68.26474476294239,0,51914,10,2,94
43.716194848421665,45.69731745979851,62.37933230009393,68.26474476294239,0,51914,10,2,95
43.716194848421665,45.69731745979851,62.37963426180669,68.26531141509702,0,51914,10,2,96
43.716194848421665,45.69731745979851,62.37963426180669,68.26531141509702,0,51914,10,2,97
43.716194848421665,45.69731745979851,62.37933230009393,68.26736346590587,0,51914,10,2,98
43.716194848421665,45.69731745979851,62.37933230009393,68.26736346590587,0,51914,10,2,99
43.716194848421665,45.69731745979851,62.37933230009393,68.26736346590587,0,51914,10,1,101
43.71566121926446,45.69855149689374,62.37933230009393,68.26736346590587,0,51914,10,1,102
43.715276415068395,45.69855149689374,62.37933230009393,68.26736346590587,0,51914,10,1,103
43.715276415068395,45.69700919709548,62.37933230009393,68.26736346590587,0,51914,10,1,104
43.71869702965533,45.696701033091024,62.37933230009393,68.26736346590587,0,51914,10,1,105
43.71869702965533,45.696701033091024,62.37933230009393,68.26736346590587,0,51914,10,1,106
43.71869702965533,45.696701033091024,62.37933230009393,68.26736346590587,0,51914,10,1,107
43.716677359664104,45.6953176966422,62.37933230009393,68.26736346590587,0,51914,10,1,108
43.71869702965533,45.696701033091024,62.37933230009393,68.26736346590587,0,51914,10,1,109
43.715353962748225,45.696701033091024,62.37933230009393,68.26736346590587,0,51914,10,1,110
43.71869702965533,45.69838535183635,62.37933230009393,68.26736346590587,0,51914,10,1,111
43.715762483893585,45.69838535183635,62.37933230009393,68.26736346590587,0,51914,10,1,112
43.715762483893585,45.693633717058,62.37933230009393,68.26736346590587,0,51914,10,1,113
43.715762483893585,45.693633717058,62.37561978854018,68.26736346590587,0,51914,10,2,0
43.715762483893585,45.693633717058,62.37527855327849,68.2625966419133,0,51914,10,2,1
43.715762483893585,45.693633717058,62.37527855327849,68.2625966419133,0,51914,10,2,2
43.715762483893585,45.693633717058,62.37963426180669,68.26531141509702,0,51914,10,2,3
43.715762483893585,45.693633717058,62.37963426180669,68.26531141509702,0,51914,10,2,4
43.715762483893585,45.693633717058,62.37963426180669,68.26332908294297,0,51914,10,2,5
43.715762483893585,45.693633717058,62.37963426180669,68.26332908294297,0,51914,10,2,6
43.715762483893585,45.693633717058,62.37963426180669,68.26332908294297,0,51914,10,2,7
43.715762483893585,45.693633717058,62.38172523282841,68.26332908294297,0,51914,10,2,8
43.715762483893585,45.693633717058,62.37963426180669,68.26332908294297,0,51914,10,2,9
43.715762483893585,45.693633717058,62.37963426180669,68.26332908294297,0,51914,10,2,10
43.715762483893585,45.693633717058,62.37933230009393,68.2625966419133,0,51914,10,2,11
43.715762483893585,45.693633717058,62.37933230009393,68.2625966419133,0,51914,10,2,12
43.715762483893585,45.693633717058,62.37933230009393,68.2625966419133,0,51914,10,2,13
43.715762483893585,45.693633717058,62.37736937829646,68.26332908294297,0,51914,10,2,14
43.715762483893585,45.693633717058,62.37933230009393,68.26474476294239,0,51914,10,2,15
43.715762483893585,45.693633717058,62.37933230009393,68.26474476294239,0,51914,10,2,16
43.715762483893585,45.693633717058,62.37963426180669,68.26736346590587,0,51914,10,2,17
43.715762483893585,45.693633717058,62.37963426180669,68.26736346590587,0,51914,10,2,18
43.715762483893585,45.693633717058,62.37963426180669,68.26736346590587,0,51914,10,2,19
43.715762483893585,45.693633717058,62.37963426180669,68.26736346590587,0,51914,10,2,20
43.715762483893585,45.693633717058,62.37963426180669,68.26736346590587,0,51914,10,2,21
43.715762483893585,45.693633717058,62.37963426180669,68.26736346590587,0,51914,10,2,22
43.715762483893585,45.693633717058,62.37963426180669,68.26736346590587,0,51914,10,2,23
43.715762483893585,45.693633717058,62.37933230009393,68.26071053473648,0,51914,10,2,24
43.715762483893585,45.693633717058,62.37933230009393,68.26071053473648,0,51914,10,2,25
43.715762483893585,45.693633717058,62.37933230009393,68.26071053473648,0,51914,10,2,26
43.715762483893585,45.693633717058,62.37963426180669,68.26736346590587,0,51914,10,2,27
43.715762483893585,45.693633717058,62.37963426180669,68.26736346590587,0,51914,10,2,28
43.715762483893585,45.693633717058,62.37963426180669,68.26531141509702,0,51914,10,2,29
43.715762483893585,45.693633717058,62.37933230009393,68.26474476294239,0,51914,10,2,30
43.715762483893585,45.693633717058,62.37933230009393,68.26474476294239,0,51914,10,2,31
43.715762483893585,45.693633717058,62.37933230009393,68.26474476294239,0,51914,10,2,32
43.715762483893585,45.693633717058,62.37963426180669,68.26736346590587,0,51914,10,2,33
43.715762483893585,45.693633717058,62.37963426180669,68.26736346590587,0,51914,10,2,34
43.715762483893585,45.693633717058,62.37963426180669,68.26736346590587,0,51914,10,2,35
43.715762483893585,45.693633717058,62.37963426180669,68.26736346590587,0,51914,10,2,36
43.715762483893585,45.693633717058,62.37561978854018,68.26332908294297,0,51914,10,2,37
43.715762483893585,45.693633717058,62.37561978854018,68.26332908294297,0,51914,10,2,38
43.715762483893585,45.693633717058,62.37561978854018,68.26127691085367,0,51914,10,2,39
43.715762483893585,45.693633717058,62.37561978854018,68.26127691085367,0,51914,10,2,40
43.715762483893585,45.693633717058,62.37963426180669,68.26127691085367,0,51914,10,2,41
43.715762483893585,45.693633717058,62.38172523282841,68.26736346590587,0,51914,10,2,42
43.715762483893585,45.693633717058,62.38172523282841,68.26736346590587,0,51914,10,2,43
43.715762483893585,45.693633717058,62.38172523282841,68.26736346590587,0,51914,10,1,45
43.715762483893585,45.69655766390823,62.38172523282841,68.26736346590587,0,51914,10,1,46
43.715762483893585,45.69655766390823,62.37963426180669,68.26531141509702,3999,51914,10,2,211
43.715762483893585,45.69655766390823,62.37963426180669,68.26531141509702,3999,51914,10,2,212
43.715762483893585,45.69655766390823,62.37561978854018,68.26332908294297,3999,51914,10,2,213
43.715762483893585,45.69655766390823,62.37527855327849,68.2625966419133,3999,51914,10,2,214
43.715762483893585,45.69655766390823,62.37527855327849,68.26127691085367,3999,51914,10,2,215
43.715762483893585,45.69655766390823,62.37963426180669,68.26127691085367,3999,51914,10,2,216
43.715762483893585,45.69655766390823,62.37963426180669,68.26531141509702,3999,51914,10,2,217
43.715762483893585,45.69655766390823,62.37963426180669,68.26531141509702,3999,51914,10,2,218
43.715762483893585,45.69655766390823,62.37933230009393,68.2625966419133,3999,51914,10,2,219
43.715762483893585,45.69655766390823,62.37933230009393,68.2625966419133,3999,51914,10,2,220
43.715762483893585,45.69655766390823,62.37933230009393,68.26474476294239,3999,51914,10,2,221
43.715762483893585,45.69655766390823,62.37963426180669,68.26736346590587,3999,51914,10,2,222
43.715762483893585,45.69655766390823,62.37963426180669,68.26736346590587,3999,51914,10,2,223
43.715762483893585,45.69655766390823,62.37963426180669,68.26736346590587,3999,51914,10,2,224
43.715762483893585,45.69655766390823,62.37963426180669,68.26736346590587,3999,51914,10,2,225
43.715762483893585,45.69655766390823,62.37963426180669,68.26736346590587,3999,51914,10,2,226
43.715762483893585,45.69655766390823,62.37963426180669,68.26604387512371,3999,51914,10,2,227
43.715762483893585,45.69655766390823,62.37963426180669,68.26332908294297,3999,51914,10,2,228
43.715762483893585,45.69655766390823,62.37963426180669,68.26332908294297,3999,51914,10,2,229
43.715762483893585,45.69655766390823,62.37963426180669,68.26332908294297,3999,51914,10,2,230
43.715762483893585,45.69655766390823,62.37963426180669,68.26332908294297,3999,51914,10,2,231
43.715762483893585,45.69655766390823,62.37561978854018,68.26736346590587,3999,51914,10,2,232
43.715762483893585,45.69655766390823,62.37561978854018,68.26332908294297,3999,51914,10,2,233
43.715762483893585,45.69655766390823,62.37963426180669,68.26332908294297,3999,51914,10,2,234
43.715762483893585,45.69655766390823,62.37963426180669,68.26332908294297,3999,51914,10,2,235
43.715762483893585,45.69655766390823,62.37561978854018,68.26127691085367,3999,51914,10,2,236
43.715762483893585,45.69655766390823,62.37561978854018,68.26332908294297,3999,51914,10,2,237
43.715762483893585,45.69655766390823,62.37561978854018,68.26127691085367,3999,51914,10,2,238
43.715762483893585,45.69655766390823,62.37561978854018,68.26127691085367,3999,51914,10,2,239
43.715762483893585,45.69655766390823,62.37527855327849,68.26127691085367,3999,51914,10,2,240
43.715762483893585,45.69655766390823,62.37527855327849,68.2625966419133,3999,51914,10,2,241
43.715762483893585,45.69655766390823,62.37527855327849,68.2625966419133,3999,51914,10,2,242
43.715762483893585,45.69655766390823,62.37527855327849,68.2625966419133,3999,51914,10,2,243
46.76562338888811,50.44707524326897,62.37527855327849,68.2625966419133,3999,51914,10,1,245
43.715276415068395,45.69855149689374,62.37527855327849,68.2625966419133,3999,51914,10,1,246
43.71566121926446,45.69855149689374,62.37527855327849,68.2625966419133,3999,51914,10,1,247
43.715276415068395,45.696701033091024,62.37527855327849,68.2625966419133,3999,51914,10,1,248
43.71566121926446,45.69532464146652,62.37527855327849,68.2625966419133,3999,51914,10,1,249
43.715762483893585,45.696701033091024,62.37527855327849,68.2625966419133,3999,51914,10,1,250
43.715762483893585,45.696701033091024,62.37527855327849,68.2625966419133,3999,51914,10,1,251
43.715762483893585,45.6971932611401,62.37527855327849,68.2625966419133,3999,51914,10,1,252
43.715353962748225,45.6971932611401,62.37527855327849,68.2625966419133,3999,51914,10,1,253
43.714843576967,45.694708722508814,62.37527855327849,68.2625966419133,3999,51914,10,1,254
43.714843576967,45.694708722508814,62.37527855327849,68.2625966419133,3999,51914,10,1,255
43.715762483893585,45.693633717058,62.37527855327849,68.2625966419133,3999,51914,10,1,0
43.715762483893585,45.6953176966422,62.37527855327849,68.2625966419133,3999,51914,10,1,1
43.715762483893585,45.6953176966422,62.37527855327849,68.2625966419133,3999,51914,10,1,2
43.718288697408305,45.69639296782025,62.37527855327849,68.2625966419133,3999,51914,10,1,3
43.718288697408305,45.69639296782025,62.37527855327849,68.2625966419133,3999,51914,10,1,4
43.715762483893585,45.693633717058,62.37527855327849,68.2625966419133,3999,51914,10,1,5
43.715762483893585,45.693633717058,62.37527855327849,68.2625966419133,3999,51914,10,1,6
43.71759641481565,45.69164154020636,62.37527855327849,68.2625966419133,3999,51914,10,1,7
43.71759641481565,45.69750122067789,62.37527855327849,68.2625966419133,3999,51914,10,1,8
43.71759641481565,45.69639296782025,62.37527855327849,68.2625966419133,3999,51914,10,1,9
43.716677359664104,45.696701033091024,62.37527855327849,68.2625966419133,3999,51914,10,1,10
43.718288697408305,45.696701033091024,62.37527855327849,68.2625966419133,3999,51914,10,1,11
43.716677359664104,45.696701033091024,62.37527855327849,68.2625966419133,3999,51914,10,1,12
43.713742949469406,45.696701033091024,62.37527855327849,68.2625966419133,3999,51914,10,1,13
43.713742949469406,45.696701033091024,62.37527855327849,68.2625966419133,3999,51914,10,1,14
43.718288697408305,45.696701033091024,62.37527855327849,68.2625966419133,3999,51914,10,1,15
43.71869702965533,45.696701033091024,62.37527855327849,68.2625966419133,3999,51914,10,1,16
43.71869702965533,45.696701033091024,62.37527855327849,68.2625966419133,3999,51914,10,1,17
43.71869702965533,45.696701033091024,62.37527855327849,68.2625966419133,3999,51914,10,1,18
43.71869702965533,45.696701033091024,62.37527855327849,68.2625966419133,3999,51914,10,1,19
43.71869702965533,45.696701033091024,62.37527855327849,68.26127691085367,3999,51914,10,2,74
43.71869702965533,45.696701033091024,62.37933230009393,68.2625966419133,3999,51914,10,2,75
43.71869702965533,45.696701033091024,62.37963426180669,68.26531141509702,3999,51914,10,2,76
43.71869702965533,45.696701033091024,62.37963426180669,68.26663080485768,3999,51914,10,2,77
43.71869702965533,45.696701033091024,62.38138350677982,68.26531141509702,3999,51914,10,2,78
43.71869702965533,45.696701033091024,62.38172523282841,68.26332908294297,3999,51914,10,2,79
43.71869702965533,45.696701033091024,62.38172523282841,68.26332908294297,3999,51914,10,2,80
43.71869702965533,45.696701033091024,62.37997573329115,68.26736346590587,3999,51914,10,2,81
43.71869702965533,45.696701033091024,62.37963426180669,68.26736346590587,3975,51914,10,2,82
43.71869702965533,45.696701033091024,62.37963426180669,68.26736346590587,3618,51914,10,2,83
43.71869702965533,45.696701033091024,62.37933230009393,68.26071053473648,3094,51914,10,2,84
43.71869702965533,45.696701033091024,62.37736937829646,68.26071053473648,2527,51914,10,2,85
43.71869702965533,45.696701033091024,62.37736937829646,68.2625966419133,1953,51914,10,2,86
43.71869702965533,45.696701033091024,62.37736937829646,68.2625966419133,1392,51914,10,2,87
43.71869702965533,45.696701033091024,62.37527855327849,68.2625966419133,861,51914,10,2,88
43.71869702965533,45.696701033091024,62.37527855327849,68.2625966419133,367,51914,10,2,89
43.71869702965533,45.696701033091024,62.37963426180669,68.26332908294297,21,51914,10,2,90
43.71869702965533,45.696701033091024,62.37963426180669,68.26332908294297,0,51914,10,2,91
43.71869702965533,45.696701033091024,62.37963426180669,68.26531141509702,0,51914,10,2,92
43.71869702965533,45.696701033091024,62.37963426180669,68.26332908294297,0,51914,10,2,93
43.71869702965533,45.696701033091024,62.37963426180669,68.26332908294297,0,51914,10,2,94
43.71869702965533,45.696701033091024,62.37963426180669,68.26332908294297,0,51914,10,2,95
43.71869702965533,45.696701033091024,62.37963426180669,68.26531141509702,0,51914,10,2,96
43.71869702965533,45.696701033091024,62.38172523282841,68.26531141509702,0,51914,10,2,97
43.71869702965533,45.696701033091024,62.38172523282841,68.26531141509702,0,51914,10,2,98
43.71869702965533,45.696701033091024,62.37963426180669,68.26332908294297,0,51914,10,2,99
43.71869702965533,45.696701033091024,62.37963426180669,68.26531141509702,0,51914,10,2,100
43.71869702965533,45.696701033091024,62.37963426180669,68.26332908294297,0,51914,10,2,101
43.71869702965533,45.696701033091024,62.37963426180669,68.26531141509702,0,51914,10,2,102
43.71869702965533,45.696701033091024,62.37963426180669,68.26531141509702,0,51914,10,2,103
43.71869702965533,45.696701033091024,62.37963426180669,68.26531141509702,0,51914,10,2,104
43.71869702965533,45.696701033091024,62.37963426180669,68.26531141509702,0,51914,10,2,105
43.71869702965533,45.696701033091024,62.37963426180669,68.26531141509702,0,51914,10,2,106
43.71869702965533,45.696701033091024,62.37963426180669,68.26531141509702,0,51914,10,2,107
43.71869702965533,45.696701033091024,62.37963426180669,68.26531141509702,0,51914,10,2,108
43.71869702965533,45.696701033091024,62.38172523282841,68.26736346590587,0,51914,10,2,109
43.71869702965533,45.696701033091024,62.38172523282841,68.26736346590587,0,51914,10,2,110
43.71869702965533,45.696701033091024,62.37963426180669,68.26736346590587,0,51914,10,2,111
43.71869702965533,45.696701033091024,62.37963426180669,68.26736346590587,0,51914,10,2,112
43.71869702965533,45.696701033091024,62.37933230009393,68.26663080485768,0,51914,10,2,113
43.71869702965533,45.696701033091024,62.37929281630714,68.26474476294239,0,51914,10,2,114
43.71869702965533,45.696701033091024,62.375318115385156,68.26474476294239,0,51914,10,2,115
43.71869702965533,45.696701033091024,62.375318115385156,68.26127691085367,0,51914,10,2,116
43.71869702965533,45.696701033091024,62.37561978854018,68.26127691085367,0,51914,10,2,117
43.71869702965533,45.696701033091024,62.37963426180669,68.26531141509702,0,51914,10,2,118
43.71869702965533,45.696701033091024,62.37963426180669,68.26531141509702,0,51914,10,2,119
43.71869702965533,45.696701033091024,62.37933230009393,68.26474476294239,0,51914,10,2,120
43.71869702965533,45.696701033091024,62.378990921298005,68.2640124956671,0,51914,10,2,50
43.71869702965533,45.696701033091024,62.37933230009393,68.26474476294239,0,51914,10,2,51
43.71869702965533,45.696701033091024,62.37963426180669,68.26736346590587,0,51914,10,2,52
43.71869702965533,45.696701033091024,62.37963426180669,68.26736346590587,0,51914,10,2,53
43.71869702965533,45.696701033091024,62.37963426180669,68.26736346590587,0,51914,10,2,54
43.71869702965533,45.696701033091024,62.378990921298005,68.2640124956671,0,51914,10,2,55
43.71869702965533,45.696701033091024,62.378990921298005,68.26332908294297,0,51914,10,2,56
43.71869702965533,45.696701033091024,62.378990921298005,68.26332908294297,0,51914,10,2,57
43.71869702965533,45.696701033091024,62.37963426180669,68.26332908294297,0,51914,10,2,58
43.71869702965533,45.696701033091024,62.37963426180669,68.26332908294297,0,51914,10,2,59
43.71869702965533,45.696701033091024,62.37963426180669,68.26736346590587,0,51914,10,2,60
43.71869702965533,45.696701033091024,62.37963426180669,68.26531141509702,0,51914,10,2,61
43.71869702965533,45.696701033091024,62.37933230009393,68.26531141509702,0,51914,10,2,62
43.71869702965533,45.696701033091024,62.37933230009393,68.26474476294239,0,51914,10,2,63
43.71869702965533,45.696701033091024,62.37736937829646,68.26332908294297,0,51914,10,2,64
43.71869702965533,45.696701033091024,62.37561978854018,68.26332908294297,0,51914,10,2,65
43.71869702965533,45.696701033091024,62.37561978854018,68.26531141509702,0,51914,10,2,66
43.71869702965533,45.696701033091024,62.37736937829646,68.26531141509702,0,51914,10,2,67
43.71869702965533,45.696701033091024,62.37736937829646,68.26531141509702,0,51914,10,2,68
43.71869702965533,45.696701033091024,62.37561978854018,68.26531141509702,0,51914,10,2,69
43.71869702965533,45.696701033091024,62.37561978854018,68.26531141509702,0,51914,10,2,70
43.71869702965533,45.696701033091024,62.37561978854018,68.26332908294297,0,51914,10,2,71
43.71869702965533,45.696701033091024,62.37561978854018,68.26332908294297,0,51914,10,2,72
43.71869702965533,45.696701033091024,62.37963426180669,68.26736346590587,0,51914,10,2,73
43.71869702965533,45.696701033091024,62.37963426180669,68.26736346590587,0,51914,10,2,74
43.71869702965533,45.696701033091024,62.37963426180669,68.26736346590587,0,51914,10,2,75
43.72030844184184,45.69838535183635,62.37963426180669,68.26736346590587,0,51914,10,1,77
43.719128125200385,45.69855149689374,62.37963426180669,68.26736346590587,0,51914,10,1,78
43.719128125200385,45.69855149689374,62.37963426180669,68.26736346590587,0,51914,10,1,79
43.71686376467253,45.69855149689374,62.37963426180669,68.26736346590587,0,51914,10,1,80
43.713742949469406,45.698117435894176,62.37963426180669,68.26736346590587,0,51914,10,1,81
43.713742949469406,45.696701033091024,62.37963426180669,68.26736346590587,0,51914,10,1,82
43.713742949469406,45.69639296782025,62.37963426180669,68.26736346590587,0,51914,10,1,83
43.715353962748225,45.696701033091024,62.37963426180669,68.26736346590587,0,51914,10,1,84
43.715762483893585,45.69750122067789,62.37963426180669,68.26736346590587,0,51914,10,1,85
43.715762483893585,45.69750122067789,62.37963426180669,68.26736346590587,0,51914,10,1,86
43.715762483893585,45.69639296782025,62.37963426180669,68.26736346590587,0,51914,10,1,87
43.715762483893585,45.69639296782025,62.37963426180669,68.26736346590587,0,51914,10,1,88
43.71443492463872,45.693633717058,62.37963426180669,68.26736346590587,0,51914,10,1,89
43.715762483893585,45.693633717058,62.37963426180669,68.26736346590587,0,51914,10,1,90
43.715353962748225,45.69501663260312,62.37963426180669,68.26736346590587,0,51914,10,1,91
43.71708553926451,45.696701033091024,62.37963426180669,68.26736346590587,0,51914,10,1,92
43.71869702965533,45.69838535183635,62.37963426180669,68.26736346590587,0,51914,10,1,93
43.71869702965533,45.6971932611401,62.37963426180669,68.26736346590587,0,51914,10,1,94
43.716677359664104,45.6971932611401,62.37963426180669,68.26736346590587,0,51914,10,1,95
43.715762483893585,45.6971932611401,62.37963426180669,68.26736346590587,0,51914,10,1,96
43.715762483893585,45.69750122067789,62.37963426180669,68.26736346590587,0,51914,10,1,97
43.715762483893585,45.69750122067789,62.37724140928085,68.26474476294239,0,51914,10,2,17
43.715762483893585,45.69750122067789,62.37724140928085,68.26474476294239,0,51914,10,2,18
43.715762483893585,45.69750122067789,62.38172523282841,68.26474476294239,0,51914,10,2,19
43.715762483893585,45.69750122067789,62.38172523282841,68.26474476294239,0,51914,10,1,21
43.715762483893585,45.69750122067789,62.38172523282841,68.26474476294239,0,51914,10,1,22
43.71657986380049,45.698117435894176,62.38172523282841,68.26474476294239,0,51914,10,1,23
43.715276415068395,45.696701033091024,62.38172523282841,68.26474476294239,0,51914,10,1,24
43.715762483893585,45.696701033091024,62.38172523282841,68.26474476294239,0,51914,10,1,25
43.714843576967,45.696701033091024,62.38172523282841,68.26474476294239,0,51914,10,1,26
43.715353962748225,45.693633717058,62.38172523282841,68.26474476294239,0,51914,10,1,27
43.715353962748225,45.69639296782025,62.38172523282841,68.26474476294239,0,51914,10,1,28
43.715353962748225,45.694708722508814,62.38172523282841,68.26474476294239,0,51914,10,1,29
43.715762483893585,45.694708722508814,62.38172523282841,68.26474476294239,0,51914,10,1,30
43.715762483893585,45.693633717058,62.38172523282841,68.26474476294239,0,51914,10,1,31
43.715762483893585,45.693633717058,62.38172523282841,68.26474476294239,0,51914,10,1,32
43.715762483893585,45.693633717058,62.38172523282841,68.26474476294239,0,51914,10,1,33
43.715762483893585,45.693633717058,62.38172523282841,68.26474476294239,0,51914,10,1,34
43.715762483893585,45.693633717058,62.38172523282841,68.26474476294239,0,51914,10,1,35
43.715762483893585,45.693633717058,62.38172523282841,68.26474476294239,0,51914,10,1,36
43.718288697408305,45.696701033091024,62.38172523282841,68.26474476294239,0,51914,10,1,37
43.716677359664104,45.696701033091024,62.38172523282841,68.26474476294239,0,51914,10,1,38
43.716677359664104,45.696701033091024,62.38172523282841,68.26474476294239,0,51914,10,1,39
43.715762483893585,45.696701033091024,62.38172523282841,68.26474476294239,0,51914,10,1,40
43.714843576967,45.696701033091024,62.38172523282841,68.26474476294239,0,51914,10,1,41
43.714843576967,45.693633717058,62.38172523282841,68.26474476294239,0,51914,10,1,42
43.713742949469406,45.696701033091024,62.38172523282841,68.26474476294239,0,51914,10,1,43
43.713742949469406,45.69750122067789,62.38172523282841,68.26474476294239,0,51914,10,1,44
43.713742949469406,45.69750122067789,62.38172523282841,68.26474476294239,0,51914,10,1,45
43.71443492463872,45.696701033091024,62.38172523282841,68.26474476294239,0,51914,10,1,46
43.715353962748225,45.696701033091024,62.38172523282841,68.26474476294239,0,51914,10,1,47
43.715353962748225,45.696701033091024,62.38172523282841,68.26474476294239,0,51914,10,1,48
43.715353962748225,45.693633717058,62.38172523282841,68.26474476294239,0,51914,10,1,49
43.715762483893585,45.693633717058,62.38172523282841,68.26474476294239,0,51914,10,1,50
43.715762483893585,45.693633717058,62.38172523282841,68.26474476294239,0,51914,10,1,51
43.715762483893585,45.693633717058,62.38172523282841,68.26474476294239,0,51914,10,1,52
43.715762483893585,45.693633717058,62.38172523282841,68.26474476294239,0,51914,10,1,53
43.715762483893585,45.696701033091024,62.38172523282841,68.26474476294239,0,51914,10,1,54
43.715762483893585,45.696701033091024,62.38172523282841,68.26474476294239,0,51914,10,1,55
43.71777819864325,45.696701033091024,62.38172523282841,68.26474476294239,0,51914,10,1,56
43.714843576967,45.696701033091024,62.38172523282841,68.26474476294239,0,51914,10,1,57
43.715762483893585,45.693633717058,62.38172523282841,68.26474476294239,0,51914,10,1,58
43.713742949469406,45.693633717058,62.38172523282841,68.26474476294239,0,51914,10,1,59
43.71443492463872,45.696701033091024,62.38172523282841,68.26474476294239,0,51914,10,1,60
43.71443492463872,45.696701033091024,62.38172523282841,68.26474476294239,0,51914,10,1,61
43.71443492463872,45.696701033091024,62.38172523282841,68.26474476294239,3999,51914,10,2,215
43.71443492463872,45.696701033091024,62.37963426180669,68.26474476294239,3999,51914,10,2,216
43.71443492463872,45.696701033091024,62.37736937829646,68.26474476294239,3999,51914,10,2,217
43.71443492463872,45.696701033091024,62.37736937829646,68.2625966419133,3999,51914,10,2,218
43.71443492463872,45.696701033091024,62.37736937829646,68.2625966419133,3999,51914,10,2,219
43.714843576967,45.69838535183635,62.37736937829646,68.2625966419133,3999,51914,10,1,221
43.718209767587,45.70161792977769,62.37736937829646,68.2625966419133,3999,51914,10,1,222
43.718209767587,45.70161792977769,62.37736937829646,68.2625966419133,3999,51914,10,1,223
43.71686376467253,45.69869367103289,62.37736937829646,68.2625966419133,3999,51914,10,1,224
43.71686376467253,45.696701033091024,62.37736937829646,68.2625966419133,3999,51914,10,1,225
43.71686376467253,45.696701033091024,62.37736937829646,68.2625966419133,3999,51914,10,1,226
43.715762483893585,45.693633717058,62.37736937829646,68.2625966419133,3999,51914,10,1,227
43.715762483893585,45.693633717058,62.37736937829646,68.2625966419133,3999,51914,10,1,228
43.715353962748225,45.6953176966422,62.37736937829646,68.2625966419133,3999,51914,10,1,229
43.715353962748225,45.69639296782025,62.37736937829646,68.2625966419133,3999,51914,10,1,230
43.71443492463872,45.69639296782025,62.37736937829646,68.2625966419133,3999,51914,10,1,231
43.71869702965533,45.696701033091024,62.37736937829646,68.2625966419133,3999,51914,10,1,232
43.718288697408305,45.69639296782025,62.37736937829646,68.2625966419133,3999,51914,10,1,233
43.71869702965533,45.696701033091024,62.37736937829646,68.2625966419133,3999,51914,10,1,234
43.718288697408305,45.69639296782025,62.37736937829646,68.2625966419133,3999,51914,10,1,235
43.71869702965533,45.696701033091024,62.37736937829646,68.2625966419133,3999,51914,10,1,236
43.718288697408305,45.69639296782025,62.37736937829646,68.2625966419133,3999,51914,10,1,237
43.715353962748225,45.6971932611401,62.37736937829646,68.2625966419133,3999,51914,10,1,238
43.715353962748225,45.69639296782025,62.37736937829646,68.2625966419133,3999,51914,10,1,239
43.715762483893585,45.69639296782025,62.37736937829646,68.2625966419133,3999,51914,10,1,240
43.715762483893585,45.693633717058,62.37736937829646,68.2625966419133,3999,51914,10,1,241
43.71737357159972,45.693633717058,62.37736937829646,68.2625966419133,3999,51914,10,1,242
43.715762483893585,45.69332544637147,62.37736937829646,68.2625966419133,3999,51914,10,1,243
43.715353962748225,45.69332544637147,62.37736937829646,68.2625966419133,3999,51914,10,1,244
43.715353962748225,45.69639296782025,62.37736937829646,68.2625966419133,3999,51914,10,1,245
43.718288697408305,45.696701033091024,62.37736937829646,68.2625966419133,3999,51914,10,1,246
43.71869702965533,45.696701033091024,62.37736937829646,68.2625966419133,3999,51914,10,1,247
43.71869702965533,45.696701033091024,62.37736937829646,68.2625966419133,3999,51914,10,1,248
43.71869702965533,45.696701033091024,62.37736937829646,68.2625966419133,3999,51914,10,1,249
43.71869702965533,45.696701033091024,62.37736937829646,68.2625966419133,3999,51914,10,1,250
43.718288697408305,45.696701033091024,62.37736937829646,68.2625966419133,3999,51914,10,1,251
43.71737357159972,45.69639296782025,62.37736937829646,68.2625966419133,3999,51914,10,1,252
43.71737357159972,45.69750122067789,62.37736937829646,68.2625966419133,3999,51914,10,1,253
43.71737357159972,45.696701033091024,62.37736937829646,68.2625966419133,3999,51914,10,1,254
43.718288697408305,45.69838535183635,62.37736937829646,68.2625966419133,3999,51914,10,1,255
43.716677359664104,45.69750122067789,62.37736937829646,68.2625966419133,3999,51914,10,1,0
43.718288697408305,45.69750122067789,62.37736937829646,68.2625966419133,3999,51914,10,1,1
43.715762483893585,45.69639296782025,62.37736937829646,68.2625966419133,3999,51914,10,1,2
43.716677359664104,45.694708722508814,62.37736937829646,68.2625966419133,3999,51914,10,1,3
43.715762483893585,45.694708722508814,62.37736937829646,68.2625966419133,3999,51914,10,1,4
43.715762483893585,45.694708722508814,62.37736937829646,68.2625966419133,3999,51914,10,1,5
43.715762483893585,45.694708722508814,62.37933230009393,68.26474476294239,3999,51914,10,2,148
43.715762483893585,45.694708722508814,62.37963426180669,68.26474476294239,3999,51914,10,2,149
43.715762483893585,45.694708722508814,62.37963426180669,68.26474476294239,3999,51914,10,2,150
43.715762483893585,45.694708722508814,62.37963426180669,68.26736346590587,3999,51914,10,2,151
43.715762483893585,45.694708722508814,62.37963426180669,68.26736346590587,3999,51914,10,2,152
43.715762483893585,45.694708722508814,62.37963426180669,68.26736346590587,3999,51914,10,2,153
43.715762483893585,45.694708722508814,62.37963426180669,68.26736346590587,3999,51914,10,2,154
43.715762483893585,45.694708722508814,62.37963426180669,68.26736346590587,3999,51914,10,2,155
43.715762483893585,45.694708722508814,62.37963426180669,68.26736346590587,3999,51914,10,2,156
43.715762483893585,45.694708722508814,62.37963426180669,68.26736346590587,3999,51914,10,2,157
43.715762483893585,45.694708722508814,62.37963426180669,68.26736346590587,3999,51914,10,2,158
43.715762483893585,45.694708722508814,62.383648805154095,68.26736346590587,3999,51914,10,2,159
43.715762483893585,45.694708722508814,62.37967370485822,68.26547709370902,3999,51914,10,2,160
43.715762483893585,45.694708722508814,62.37967370485822,68.26736346590587,3999,51914,10,2,161
43.715762483893585,45.694708722508814,62.37963426180669,68.26547709370902,3999,51914,10,2,162
43.715762483893585,45.694708722508814,62.37963426180669,68.26531141509702,3999,51914,10,2,163
43.715762483893585,45.6953176966422,62.37963426180669,68.26531141509702,3999,51914,10,1,165
43.719128125200385,45.69655766390823,62.37963426180669,68.26531141509702,3999,51914,10,1,166
43.719128125200385,45.69655766390823,62.37963426180669,68.26531141509702,3999,51914,10,1,167
43.71686376467253,45.69655766390823,62.37963426180669,68.26531141509702,3999,51914,10,1,168
43.71686376467253,45.696701033091024,62.37963426180669,68.26531141509702,3999,51914,10,1,169
43.71869702965533,45.696701033091024,62.37963426180669,68.26531141509702,3999,51914,10,1,170
43.71869702965533,45.696701033091024,62.37963426180669,68.26531141509702,3999,51914,10,1,171
43.71869702965533,45.696701033091024,62.37963426180669,68.26531141509702,3999,51914,10,1,172
43.71869702965533,45.696701033091024,62.37963426180669,68.26531141509702,3999,51914,10,1,173
43.718288697408305,45.696701033091024,62.37963426180669,68.26531141509702,3999,51914,10,1,174
43.71777819864325,45.696701033091024,62.37963426180669,68.26531141509702,3999,51914,10,1,175
43.71777819864325,45.69976869886337,62.37963426180669,68.26531141509702,3999,51914,10,1,176
43.716677359664104,45.6971932611401,62.37963426180669,68.26531141509702,3999,51914,10,1,177
43.715353962748225,45.6971932611401,62.37963426180669,68.26531141509702,3999,51914,10,1,178
43.715353962748225,45.696701033091024,62.37963426180669,68.26531141509702,3999,51914,10,1,179
43.718288697408305,45.69639296782025,62.37963426180669,68.26531141509702,3999,51914,10,1,180
43.718288697408305,45.69639296782025,62.37963426180669,68.26531141509702,3999,51914,10,1,181
43.718288697408305,45.69639296782025,62.37963426180669,68.26531141509702,3999,51914,10,1,182
43.715762483893585,45.696701033091024,62.37963426180669,68.26531141509702,3999,51914,10,1,183
43.716677359664104,45.696701033091024,62.37963426180669,68.26531141509702,3999,51914,10,1,184
43.716677359664104,45.696701033091024,62.37963426180669,68.26531141509702,3999,51914,10,1,185
43.716677359664104,45.696701033091024,62.37963426180669,68.26531141509702,3999,51914,10,1,186
43.714843576967,45.696701033091024,62.37963426180669,68.26531141509702,3999,51914,10,1,187
43.714843576967,45.696701033091024,62.37963426180669,68.26531141509702,3999,51914,10,1,188
43.71443492463872,45.69750122067789,62.37963426180669,68.26531141509702,3999,51914,10,1,189
43.716677359664104,45.696701033091024,62.37963426180669,68.26531141509702,3999,51914,10,1,190
43.715762483893585,45.696701033091024,62.37963426180669,68.26531141509702,3999,51914,10,1,191
43.716677359664104,45.696701033091024,62.37963426180669,68.26531141509702,3999,51914,10,1,192
43.71869702965533,45.696701033091024,62.37963426180669,68.26531141509702,3999,51914,10,1,193
43.71869702965533,45.696701033091024,62.37963426180669,68.26531141509702,3999,51914,10,1,194
43.71869702965533,45.696701033091024,62.37963426180669,68.26531141509702,3999,51914,10,2,76
43.71869702965533,45.696701033091024,62.37963426180669,68.26531141509702,3999,51914,10,2,77
43.71869702965533,45.696701033091024,62.37963426180669,68.26531141509702,3999,51914,10,2,78
43.71869702965533,45.696701033091024,62.37963426180669,68.26736346590587,3999,51914,10,2,79
43.71869702965533,45.696701033091024,62.37963426180669,68.26736346590587,3999,51914,10,2,80
43.71869702965533,45.696701033091024,62.37963426180669,68.26736346590587,3999,51914,10,2,81
43.71869702965533,45.696701033091024,62.37963426180669,68.26736346590587,3999,51914,10,2,82
43.71869702965533,45.696701033091024,62.377710894131546,68.26332908294297,3999,51914,10,2,83
43.71869702965533,45.696701033091024,62.377710894131546,68.26332908294297,3999,51914,10,2,84
43.71869702965533,45.696701033091024,62.377710894131546,68.26332908294297,3999,51914,10,2,85
43.71869702965533,45.696701033091024,62.37963426180669,68.26531141509702,3999,51914,10,2,86
43.71869702965533,45.696701033091024,62.37963426180669,68.26736346590587,3999,51914,10,2,87
43.71869702965533,45.696701033091024,62.37963426180669,68.26736346590587,3999,51914,10,2,88
43.71869702965533,45.696701033091024,62.37963426180669,68.26736346590587,3999,51914,10,2,89
43.71869702965533,45.696701033091024,62.37963426180669,68.26736346590587,3999,51914,10,2,90
43.71869702965533,45.696701033091024,62.37561978854018,68.26736346590587,3999,51914,10,2,91
43.71869702965533,45.696701033091024,62.37561978854018,68.26736346590587,3999,51914,10,2,92
43.71869702965533,45.696701033091024,62.37561978854018,68.26531141509702,3999,51914,10,2,93
43.71869702965533,45.696701033091024,62.37963426180669,68.26531141509702,3999,51914,10,2,94
43.71869702965533,45.696701033091024,62.37963426180669,68.26736346590587,3999,51914,10,2,95
43.71869702965533,45.696701033091024,62.37963426180669,68.26736346590587,3999,51914,10,2,96
43.71869702965533,45.696701033091024,62.37963426180669,68.26736346590587,3999,51914,10,2,97
43.71869702965533,45.696701033091024,62.37963426180669,68.26736346590587,3999,51914,10,2,98
43.71869702965533,45.696701033091024,62.37736937829646,68.2625966419133,3999,51914,10,2,99
43.71869702965533,45.696701033091024,62.37736937829646,68.2625966419133,3999,51914,10,2,100
43.71869702965533,45.696701033091024,62.37963426180669,68.26736346590587,3999,51914,10,2,101
43.71869702965533,45.696701033091024,62.37963426180669,68.26736346590587,3999,51914,10,2,102
43.71869702965533,45.696701033091024,62.37963426180669,68.26736346590587,3999,51914,10,2,103
43.71869702965533,45.696701033091024,62.37963426180669,68.26736346590587,3999,51914,10,2,104
43.71869702965533,45.696701033091024,62.37561978854018,68.2625966419133,3999,51914,10,2,105
43.71869702965533,45.696701033091024,62.37561978854018,68.2625966419133,3999,51914,10,2,106
43.71869702965533,45.696701033091024,62.37527855327849,68.2625966419133,3999,51914,10,2,107
43.71869702965533,45.696701033091024,62.37527855327849,68.2625966419133,3999,51914,10,1,109
43.71869702965533,45.696701033091024,62.37527855327849,68.2625966419133,3999,51914,10,1,110
43.716194848421665,45.69731745979851,62.37527855327849,68.2625966419133,3999,51914,10,1,111
43.71566121926446,45.69700919709548,62.37527855327849,68.2625966419133,3999,51914,10,1,112
43.71566121926446,45.69700919709548,62.37527855327849,68.2625966419133,3999,51914,10,1,113
43.715762483893585,45.69700919709548,62.37527855327849,68.2625966419133,3999,51914,10,1,114
43.715762483893585,45.69750122067789,62.37527855327849,68.2625966419133,3999,51914,10,1,115
43.715762483893585,45.69750122067789,62.37527855327849,68.2625966419133,3999,51914,10,1,116
43.71869702965533,45.696701033091024,62.37527855327849,68.2625966419133,3999,51914,10,1,117
43.71869702965533,45.696701033091024,62.37527855327849,68.2625966419133,3999,51914,10,1,118
43.71869702965533,45.696701033091024,62.37527855327849,68.2625966419133,3999,51914,10,1,119
43.718288697408305,45.696701033091024,62.37527855327849,68.2625966419133,3999,51914,10,1,120
43.71869702965533,45.696701033091024,62.37527855327849,68.2625966419133,3999,51914,10,1,121
43.71869702965533,45.696701033091024,62.37527855327849,68.2625966419133,3999,51914,10,1,122
43.71869702965533,45.696701033091024,62.37527855327849,68.2625966419133,3999,51914,10,1,123
43.715762483893585,45.693633717058,62.37527855327849,68.2625966419133,3999,51914,10,1,124
43.715762483893585,45.693633717058,62.37527855327849,68.2625966419133,3999,51914,10,1,125
43.715762483893585,45.693633717058,62.37527855327849,68.2625966419133,3999,51914,10,1,126
43.715762483893585,45.69750122067789,62.37527855327849,68.2625966419133,3999,51914,10,1,127
43.715762483893585,45.69750122067789,62.37527855327849,68.2625966419133,3999,51914,10,1,128
43.715762483893585,45.69750122067789,62.37527855327849,68.2625966419133,3999,51914,10,1,129
43.715762483893585,45.69750122067789,62.37527855327849,68.2625966419133,3999,51914,10,1,130
43.715762483893585,45.696701033091024,62.37527855327849,68.2625966419133,3999,51914,10,1,131
43.716677359664104,45.696701033091024,62.37527855327849,68.2625966419133,3999,51914,10,1,132
43.715762483893585,45.69164154020636,62.37527855327849,68.2625966419133,3999,51914,10,1,133
43.713742949469406,45.693633717058,62.37527855327849,68.2625966419133,3999,51914,10,1,134
43.713742949469406,45.693633717058,62.37527855327849,68.2625966419133,3999,51914,10,1,135
43.714843576967,45.696701033091024,62.37527855327849,68.2625966419133,3999,51914,10,1,136
43.714843576967,45.69750122067789,62.37527855327849,68.2625966419133,3999,51914,10,1,137
43.715353962748225,45.69750122067789,62.37527855327849,68.2625966419133,3999,51914,10,1,138
43.71443492463872,45.69750122067789,62.37527855327849,68.2625966419133,3999,51914,10,1,139
43.715353962748225,45.6971932611401,62.37527855327849,68.2625966419133,3999,51914,10,1,140
43.715353962748225,45.6971932611401,62.37527855327849,68.2625966419133,3999,51914,10,1,141
43.715353962748225,45.69639296782025,62.37527855327849,68.2625966419133,3999,51914,10,1,142
43.715762483893585,45.693633717058,62.37527855327849,68.2625966419133,3999,51914,10,1,143
43.715762483893585,45.693633717058,62.37527855327849,68.2625966419133,3999,51914,10,1,144
43.715762483893585,45.693633717058,62.37527855327849,68.2625966419133,3999,51914,10,1,145
43.71869702965533,45.696701033091024,62.37527855327849,68.2625966419133,3999,51914,10,1,146
43.71869702965533,45.696701033091024,62.37527855327849,68.2625966419133,3999,51914,10,1,147
43.71869702965533,45.696701033091024,62.37527855327849,68.2625966419133,3999,51914,10,1,148
43.716677359664104,45.696701033091024,62.37527855327849,68.2625966419133,3999,51914,10,1,126
43.716677359664104,45.696701033091024,62.37527855327849,68.2625966419133,0,51914,10,1,127
43.715762483893585,45.6953176966422,62.37527855327849,68.2625966419133,0,51914,10,1,128
