BIOZ1,BIOZ2,BIOZ3,BIOZ4,ECG,PPG,EXC_FREQ_KHZ,MUX_CONFIG,PACKET_NUMBER
7.756673041447496,8.077302399121473,62.395934707820636,68.28445759562153,0,384,10,1,120
7.7534644367293115,8.076917745101326,62.395934707820636,68.28445759562153,0,384,10,1,121
7.7534644367293115,8.076917745101326,62.395934707820636,68.28445759562153,0,320,10,1,122
7.7534644367293115,8.076917745101326,62.395934707820636,68.28445759562153,0,320,10,1,123
7.753833686653572,8.077302399121473,62.395934707820636,68.28445759562153,0,320,10,1,124
7.753833686653572,8.077302399121473,62.395934707820636,68.28445759562153,0,320,10,1,125
7.756216993348906,8.077302399121473,62.395934707820636,68.28445759562153,0,320,10,1,126
7.756673041447496,8.077302399121473,62.395934707820636,68.28445759562153,0,256,10,1,127
7.756673041447496,8.077302399121473,62.395934707820636,68.28445759562153,0,256,10,1,128
7.753833686653572,8.077302399121473,62.395934707820636,68.28445759562153,0,256,10,1,129
7.753833686653572,8.076507879607984,62.395934707820636,68.28445759562153,0,256,10,1,130
7.7534644367293115,8.074109952629335,62.395934707820636,68.28445759562153,0,256,10,1,131
7.753833686653572,8.076507879607984,62.395934707820636,68.28445759562153,0,256,10,1,132
7.7534644367293115,8.076917745101326,62.395934707820636,68.28445759562153,0,256,10,1,133
7.753833686653572,8.076917745101326,62.395934707820636,68.28445759562153,0,256,10,1,134
7.755910060468619,8.07689247507018,62.395934707820636,68.28445759562153,0,256,10,1,135
7.755910060468619,8.07689247507018,62.395934707820636,68.28445759562153,0,256,10,1,136
7.753833686653572,8.077302399121473,62.395934707820636,68.28445759562153,0,448,10,1,137
7.753833686653572,8.077302399121473,62.395934707820636,68.28445759562153,0,448,10,1,138
7.756279389373997,8.077302399121473,62.395934707820636,68.28445759562153,0,448,10,1,139
7.7565863743605465,8.077302399121473,62.395934707820636,68.28445759562153,0,448,10,1,140
7.756279389373997,8.07689247507018,62.395934707820636,68.28445759562153,0,448,10,1,141
7.756673041447496,8.077302399121473,62.395934707820636,68.28445759562153,0,448,10,1,142
7.755910060468619,8.076507879607984,62.395934707820636,68.28445759562153,0,384,10,1,143
7.7534644367293115,8.076917745101326,62.395934707820636,68.28445759562153,0,384,10,1,144
7.753440178677665,8.076507879607984,62.395934707820636,68.28445759562153,0,384,10,1,145
7.7534644367293115,8.076917745101326,62.395934707820636,68.28445759562153,0,384,10,1,146
7.753833686653572,8.077302399121473,62.395934707820636,68.28445759562153,0,384,10,1,147
7.753833686653572,8.077302399121473,62.395934707820636,68.28445759562153,0,384,10,1,148
7.756279389373997,8.076917745101326,62.395934707820636,68.28445759562153,0,384,10,1,149
7.756303656308633,8.076917745101326,62.395934707820636,68.28445759562153,0,384,10,1,150
7.7565863743605465,8.077302399121473,62.395934707820636,68.28445759562153,0,384,10,1,151
7.7565863743605465,8.077302399121473,62.395934707820636,68.28445759562153,0,384,10,1,152
7.7570424417902055,8.076507879607984,62.395934707820636,68.28445759562153,0,448,10,1,153
7.754227216987911,8.076507879607984,62.395934707820636,68.28445759562153,0,448,10,1,154
7.753833686653572,8.076917745101326,62.395934707820636,68.28445759562153,0,448,10,1,155
7.753833686653572,8.077302399121473,62.395934707820636,68.28445759562153,0,448,10,1,156
7.753833686653572,8.077302399121473,62.3927033590088,68.28369057674603,0,192,10,2,158
7.753833686653572,8.077302399121473,19.383088235294117,1.05680529157833,0,192,10,2,159
7.753833686653572,8.077302399121473,19.269407351961146,1.050607179203294,0,192,10,2,160
7.753833686653572,8.077302399121473,19.269407351961146,1.050607179203294,0,192,10,2,161
7.753833686653572,8.077302399121473,19.269407351961146,1.050607179203294,0,320,10,2,162
7.753833686653572,8.077302399121473,19.269407351961146,1.050607179203294,0,320,10,2,163
7.753833686653572,8.077302399121473,19.269407351961146,1.050607179203294,0,320,10,2,164
7.753833686653572,8.077302399121473,18.940090274940307,1.050607179203294,0,320,10,2,165
7.753833686653572,8.077302399121473,19.269407351961146,1.050607179203294,0,320,10,2,166
7.753833686653572,8.077302399121473,18.940090274940307,1.050607179203294,0,128,10,2,167
7.753833686653572,8.077302399121473,19.269407351961146,1.050607179203294,0,128,10,2,168
7.753833686653572,8.077302399121473,19.269407351961146,1.050607179203294,0,128,10,2,169
7.753833686653572,8.077302399121473,19.381746984333425,1.0567321638550593,0,128,10,2,170
7.753833686653572,8.077302399121473,19.381746984333425,1.0567321638550593,0,384,10,2,171
7.753833686653572,8.077302399121473,19.383088235294117,1.05680529157833,0,384,10,2,172
7.753833686653572,8.077302399121473,18.940090274940307,1.050607179203294,0,384,10,2,173
7.753833686653572,8.077302399121473,19.269407351961146,1.050607179203294,0,384,10,2,174
7.753833686653572,8.077302399121473,19.269407351961146,0.6644623224814189,0,384,10,2,175
7.753833686653572,8.077302399121473,19.269407351961146,0.6644623224814189,0,384,10,2,176
7.753833686653572,8.077302399121473,19.269407351961146,0.6644623224814189,0,448,10,2,177
7.753833686653572,8.077302399121473,18.940090274940307,0.6644623224814189,0,448,10,2,178
7.753833686653572,8.077302399121473,19.269407351961146,0.6644623224814189,0,448,10,2,179
7.753833686653572,8.077302399121473,19.156408480192134,0.6644623224814189,0,448,10,2,180
7.753833686653572,8.077302399121473,19.269407351961146,1.0444462514822703,0,448,10,2,181
7.753833686653572,8.077302399121473,19.269407351961146,1.050607179203294,0,256,10,2,182
7.753833686653572,8.077302399121473,19.269407351961146,1.050607179203294,0,256,10,2,183
7.753833686653572,8.077302399121473,19.60445382934035,1.050607179203294,0,256,10,2,184
7.753833686653572,8.077302399121473,19.60445382934035,1.050607179203294,0,256,10,2,185
7.753833686653572,8.077302399121473,19.60445382934035,1.050607179203294,0,256,10,2,186
7.753833686653572,8.077302399121473,19.60445382934035,1.050607179203294,0,256,10,2,187
7.753833686653572,8.077302399121473,19.269407351961146,1.050607179203294,0,256,10,2,188
7.753833686653572,8.077302399121473,19.269407351961146,1.050607179203294,0,256,10,2,189
7.753833686653572,8.077302399121473,19.383088235294117,1.050607179203294,0,256,10,2,190
7.753833686653572,8.077302399121473,19.60445382934035,1.05680529157833,0,256,10,2,191
7.753833686653572,8.077302399121473,19.60445382934035,1.050607179203294,0,256,10,2,192
7.753833686653572,8.077302399121473,19.269407351961146,1.050607179203294,0,448,10,2,193
7.753833686653572,8.077302399121473,19.269407351961146,1.050607179203294,0,448,10,2,194
7.753833686653572,8.077302399121473,19.60445382934035,0.6644623224814189,0,448,10,2,195
7.753833686653572,8.077302399121473,19.60445382934035,0.6644623224814189,0,448,10,2,196
7.753833686653572,8.077302399121473,19.383088235294117,0.6644623224814189,0,448,10,2,197
7.753833686653572,8.077302399121473,19.269407351961146,0.6644623224814189,0,384,10,2,198
7.753833686653572,8.077302399121473,19.269407351961146,0.6683823529411764,0,384,10,2,199
7.753833686653572,8.077302399121473,19.269407351961146,1.050607179203294,0,384,10,2,200
7.753833686653572,8.077302399121473,19.269407351961146,1.050607179203294,0,384,10,2,201
7.753833686653572,8.077302399121473,19.269407351961146,1.050607179203294,0,384,10,2,202
7.753833686653572,8.077302399121473,19.269407351961146,1.050607179203294,0,448,10,2,203
7.753833686653572,8.077302399121473,19.269407351961146,1.050607179203294,0,448,10,2,204
7.753833686653572,8.077302399121473,19.269407351961146,1.050607179203294,0,448,10,2,205
7.753833686653572,8.077302399121473,19.269407351961146,1.050607179203294,0,448,10,2,206
7.753833686653572,8.077302399121473,19.269407351961146,1.050607179203294,0,448,10,2,207
7.753833686653572,8.077302399121473,19.269407351961146,1.050607179203294,0,384,10,2,208
7.753833686653572,8.077302399121473,19.269407351961146,1.050607179203294,0,384,10,2,209
7.753833686653572,8.077302399121473,19.269407351961146,1.050607179203294,0,384,10,2,210
7.753833686653572,8.077302399121473,19.269407351961146,1.050607179203294,0,384,10,2,211
7.753833686653572,8.077302399121473,19.269407351961146,1.050607179203294,0,128,10,2,212
7.753833686653572,8.077302399121473,19.269407351961146,1.050607179203294,0,64,10,2,213
7.753833686653572,8.077302399121473,19.269407351961146,0.6644623224814189,0,64,10,2,214
7.753833686653572,8.077302399121473,19.269407351961146,0.6644623224814189,0,64,10,2,215
7.753833686653572,8.077302399121473,19.269407351961146,0.6683823529411764,0,64,10,2,216
7.753833686653572,8.077302399121473,19.269407351961146,1.050607179203294,0,64,10,2,217
7.753833686653572,8.077302399121473,19.269407351961146,0.6683823529411764,0,64,10,2,218
7.753833686653572,8.077302399121473,19.269407351961146,0.6683361029080491,0,64,10,2,219
7.753833686653572,8.077302399121473,19.269407351961146,0.6683361029080491,0,64,10,2,220
7.753833686653572,8.077302399121473,19.269407351961146,1.050607179203294,0,320,10,2,221
7.753833686653572,8.077302399121473,19.269407351961146,1.050607179203294,0,320,10,2,222
7.753833686653572,8.077302399121473,19.269407351961146,1.050607179203294,0,320,10,2,223
7.753833686653572,8.077302399121473,19.269407351961146,1.050607179203294,0,320,10,2,224
7.753833686653572,8.077302399121473,19.269407351961146,1.050607179203294,0,320,10,2,225
7.753833686653572,8.077302399121473,19.269407351961146,1.050607179203294,0,320,10,2,226
7.753833686653572,8.077302399121473,19.269407351961146,1.050607179203294,0,448,10,2,227
7.753833686653572,8.077302399121473,19.269407351961146,1.050607179203294,0,448,10,2,228
7.753833686653572,8.077302399121473,19.269407351961146,0.6644623224814189,0,448,10,2,229
7.753833686653572,8.077302399121473,19.269407351961146,0.6644623224814189,0,448,10,2,230
7.753833686653572,8.077302399121473,19.269407351961146,1.050607179203294,0,448,10,2,231
7.753833686653572,8.077302399121473,19.269407351961146,1.050607179203294,0,448,10,2,232
7.753833686653572,8.077302399121473,19.269407351961146,1.050607179203294,0,448,10,2,233
7.753833686653572,8.077302399121473,19.269407351961146,1.050607179203294,0,448,10,2,234
7.753833686653572,8.077302399121473,19.269407351961146,1.050607179203294,0,448,10,2,235
7.753833686653572,8.077302399121473,19.269407351961146,1.050607179203294,0,448,10,2,236
7.753833686653572,8.077302399121473,19.269407351961146,1.050607179203294,0,448,10,2,237
7.753833686653572,8.077302399121473,19.269407351961146,1.050607179203294,0,256,10,2,238
7.753833686653572,8.077302399121473,18.940090274940307,0.6644623224814189,0,256,10,2,239
7.753833686653572,8.077302399121473,19.269407351961146,0.6644623224814189,0,256,10,2,240
7.753833686653572,8.077302399121473,19.156408480192134,0.6644623224814189,0,256,10,2,241
7.753833686653572,8.077302399121473,19.269407351961146,0.6644623224814189,0,256,10,2,242
7.753833686653572,8.077302399121473,19.269407351961146,1.050607179203294,0,448,10,2,243
7.753833686653572,8.077302399121473,19.269407351961146,1.050607179203294,0,448,10,2,244
7.753833686653572,8.077302399121473,18.940090274940307,1.050607179203294,0,448,10,2,245
7.753833686653572,8.077302399121473,18.940090274940307,1.050607179203294,0,448,10,2,246
7.753833686653572,8.077302399121473,18.940090274940307,1.050607179203294,0,448,10,2,247
7.753833686653572,8.077302399121473,19.269407351961146,1.050607179203294,0,384,10,2,248
7.753833686653572,8.077302399121473,18.940090274940307,0.6644623224814189,0,384,10,2,249
7.753833686653572,8.077302399121473,18.940090274940307,0.6644623224814189,0,384,10,2,250
7.753833686653572,8.077302399121473,18.940090274940307,0.6644623224814189,0,384,10,2,251
7.753833686653572,8.077302399121473,18.940090274940307,0.6644623224814189,0,384,10,2,252
7.753833686653572,8.077302399121473,18.940090274940307,0.6644623224814189,0,384,10,2,253
7.753833686653572,8.077302399121473,18.940090274940307,0.6644623224814189,0,384,10,2,254
7.753833686653572,8.077302399121473,18.940090274940307,1.050607179203294,0,384,10,2,255
7.753833686653572,8.077302399121473,18.940090274940307,1.050607179203294,0,384,10,2,0
7.753833686653572,8.077302399121473,18.940090274940307,1.050607179203294,0,384,10,1,2
7.754060080039477,8.077621952714674,18.940090274940307,1.050607179203294,0,384,10,1,3
7.754060080039477,8.07845645616102,18.940090274940307,1.050607179203294,0,384,10,1,4
7.754060080039477,8.077687068973928,18.940090274940307,1.050607179203294,0,384,10,1,5
7.753440178677665,8.077687068973928,18.940090274940307,1.050607179203294,0,384,10,1,6
7.753833686653572,8.077302399121473,18.940090274940307,1.050607179203294,0,448,10,1,7
7.753833686653572,8.077302399121473,18.940090274940307,1.050607179203294,0,448,10,1,8
7.753833686653572,8.077302399121473,18.940090274940307,1.050607179203294,0,448,10,1,9
7.753440178677665,8.07689247507018,18.940090274940307,1.050607179203294,0,448,10,1,10
7.753440178677665,8.07689247507018,18.940090274940307,1.050607179203294,0,448,10,1,11
7.753833686653572,8.077302399121473,18.940090274940307,1.050607179203294,0,448,10,1,12
7.754227216987911,8.077302399121473,18.940090274940307,1.050607179203294,0,256,10,1,13
7.755910060468619,8.07689247507018,18.940090274940307,1.050607179203294,0,256,10,1,14
7.755910060468619,8.076507879607984,18.940090274940307,1.050607179203294,0,256,10,1,15
7.755910060468619,8.076507879607984,18.940090274940307,1.050607179203294,0,0,10,1,16
7.754202951776113,8.07689247507018,18.940090274940307,1.050607179203294,0,0,10,1,17
7.753833686653572,8.077302399121473,18.940090274940307,1.050607179203294,0,64,10,1,18
7.753833686653572,8.077302399121473,18.940090274940307,1.050607179203294,0,64,10,1,19
7.753833686653572,8.077302399121473,18.940090274940307,1.050607179203294,0,320,10,1,20
7.753833686653572,8.077302399121473,18.940090274940307,1.050607179203294,0,320,10,1,21
7.7534644367293115,8.076917745101326,18.940090274940307,1.050607179203294,0,256,10,1,22
7.753833686653572,8.077302399121473,18.940090274940307,1.050607179203294,0,256,10,1,23
7.756673041447496,8.076917745101326,18.940090274940307,1.050607179203294,0,256,10,1,24
7.756673041447496,8.077302399121473,18.940090274940307,1.050607179203294,0,256,10,1,25
7.759055205703515,8.077302399121473,18.940090274940307,1.050607179203294,0,256,10,1,26
7.756673041447496,8.077302399121473,18.940090274940307,1.050607179203294,0,384,10,1,27
7.756673041447496,8.077302399121473,18.940090274940307,1.050607179203294,0,384,10,1,28
7.753833686653572,8.077302399121473,18.940090274940307,1.050607179203294,0,384,10,1,29
7.753440178677665,8.07689247507018,18.940090274940307,1.050607179203294,0,384,10,1,30
7.753440178677665,8.07689247507018,18.940090274940307,1.050607179203294,0,384,10,1,31
7.7534644367293115,8.07689247507018,18.940090274940307,1.050607179203294,0,448,10,1,32
7.7534644367293115,8.07689247507018,18.940090274940307,1.050607179203294,0,448,10,1,33
7.7534644367293115,8.07689247507018,18.940090274940307,1.050607179203294,0,448,10,1,34
7.7534644367293115,8.076917745101326,18.940090274940307,1.050607179203294,0,448,10,1,35
7.753833686653572,8.077302399121473,18.940090274940307,1.050607179203294,0,448,10,1,36
7.7534644367293115,8.076917745101326,18.940090274940307,1.050607179203294,0,448,10,1,37
7.754227216987911,8.07689247507018,18.940090274940307,1.050607179203294,0,448,10,1,38
7.753833686653572,8.07689247507018,18.940090274940307,1.050607179203294,0,448,10,1,39
7.753833686653572,8.077302399121473,18.940090274940307,1.050607179203294,0,448,10,1,40
7.753833686653572,8.077302399121473,18.940090274940307,1.050607179203294,0,448,10,1,41
7.753833686653572,8.077302399121473,18.940090274940307,1.050607179203294,0,256,10,1,42
7.7534644367293115,8.076917745101326,18.940090274940307,1.050607179203294,0,256,10,1,43
7.753833686653572,8.077302399121473,18.940090274940307,1.050607179203294,0,256,10,1,44
7.753833686653572,8.076917745101326,18.940090274940307,1.050607179203294,0,256,10,1,45
7.753833686653572,8.077302399121473,18.940090274940307,1.050607179203294,0,256,10,1,46
7.753833686653572,8.077302399121473,18.940090274940307,1.050607179203294,0,320,10,1,47
7.753833686653572,8.077302399121473,18.940090274940307,1.050607179203294,0,320,10,1,48
7.753833686653572,8.077302399121473,18.940090274940307,1.050607179203294,0,320,10,1,49
7.753833686653572,8.077302399121473,18.940090274940307,1.050607179203294,0,320,10,1,50
7.753833686653572,8.077302399121473,18.940090274940307,1.050607179203294,0,320,10,1,51
7.7534644367293115,8.076917745101326,18.940090274940307,1.050607179203294,0,320,10,1,52
7.7534644367293115,8.07689247507018,18.940090274940307,1.050607179203294,0,448,10,1,53
7.753833686653572,8.076917745101326,18.940090274940307,1.050607179203294,0,448,10,1,54
7.756279389373997,8.07689247507018,18.940090274940307,1.050607179203294,0,448,10,1,55
7.753833686653572,8.077302399121473,18.940090274940307,1.050607179203294,175,448,10,1,56
7.753833686653572,8.077302399121473,18.940090274940307,1.050607179203294,741,448,10,1,57
7.753833686653572,8.077302399121473,18.940090274940307,1.050607179203294,1500,256,10,1,58
7.753833686653572,8.077302399121473,18.940090274940307,1.050607179203294,2379,256,10,1,59
7.7534644367293115,8.076917745101326,18.940090274940307,1.050607179203294,3317,256,10,1,60
7.7534644367293115,8.076917745101326,18.940090274940307,1.050607179203294,3976,256,10,1,61
7.7534644367293115,8.076917745101326,18.940090274940307,1.050607179203294,3999,192,10,1,62
7.7565863743605465,8.077302399121473,18.940090274940307,1.050607179203294,3999,192,10,1,63
7.7565863743605465,8.077302399121473,18.940090274940307,1.050607179203294,3999,192,10,1,64
7.756216993348906,8.076917745101326,18.940090274940307,1.050607179203294,3999,192,10,1,65
7.756216993348906,8.076917745101326,18.940090274940307,1.050607179203294,3999,192,10,1,66
7.757066715887614,8.077302399121473,18.940090274940307,1.050607179203294,3999,192,10,1,67
7.757066715887614,8.077302399121473,18.940090274940307,1.050607179203294,3999,128,10,1,68
7.756279389373997,8.07689247507018,18.940090274940307,1.050607179203294,3999,128,10,1,69
7.756279389373997,8.07689247507018,18.940090274940307,1.050607179203294,3999,128,10,1,70
7.756279389373997,8.07689247507018,18.940090274940307,1.050607179203294,3999,320,10,1,71
7.756279389373997,8.076917745101326,18.940090274940307,1.050607179203294,3999,320,10,1,72
7.754227216987911,8.076917745101326,18.940090274940307,1.050607179203294,3999,320,10,1,73
7.7534644367293115,8.076917745101326,18.940090274940307,1.050607179203294,3999,320,10,1,74
7.753833686653572,8.077302399121473,18.940090274940307,1.050607179203294,3999,320,10,1,75
7.753833686653572,8.076917745101326,18.940090274940307,1.050607179203294,3999,320,10,1,76
7.755910060468619,8.077302399121473,18.940090274940307,1.050607179203294,3999,320,10,1,77
7.755910060468619,8.07689247507018,18.940090274940307,1.050607179203294,3999,320,10,1,78
7.756303656308633,8.076917745101326,18.940090274940307,1.050607179203294,3999,320,10,1,79
7.756303656308633,8.076917745101326,18.940090274940307,1.050607179203294,3999,320,10,1,80
7.756303656308633,8.076917745101326,18.940090274940307,1.050607179203294,3999,320,10,1,81
7.759030930160182,8.076917745101326,18.940090274940307,1.050607179203294,3999,256,10,1,82
7.756279389373997,8.07689247507018,18.940090274940307,1.050607179203294,3999,256,10,1,83
7.759030930160182,8.07689247507018,18.940090274940307,1.050607179203294,3999,256,10,1,84
7.756279389373997,8.07689247507018,18.940090274940307,1.050607179203294,3999,256,10,1,85
7.759055205703515,8.076917745101326,18.940090274940307,1.050607179203294,3999,256,10,1,86
7.756279389373997,8.07689247507018,18.940090274940307,1.050607179203294,3999,320,10,1,87
7.756303656308633,8.076917745101326,18.940090274940307,1.050607179203294,3999,320,10,1,88
7.756279389373997,8.07689247507018,18.940090274940307,1.050607179203294,3999,320,10,1,89
7.756279389373997,8.07689247507018,18.940090274940307,1.050607179203294,3999,320,10,1,90
7.756279389373997,8.07689247507018,18.940090274940307,1.050607179203294,3999,320,10,1,91
7.756673041447496,8.076917745101326,18.940090274940307,1.050607179203294,3999,320,10,1,92
7.758661470235343,8.076917745101326,18.940090274940307,1.050607179203294,3999,384,10,1,93
7.758661470235343,8.076917745101326,18.940090274940307,1.050607179203294,3999,384,10,1,94
7.758661470235343,8.07689247507018,18.940090274940307,1.050607179203294,3999,384,10,1,95
7.759030930160182,8.076917745101326,18.940090274940307,1.050607179203294,3999,384,10,1,96
7.759055205703515,8.076917745101326,18.940090274940307,1.050607179203294,3999,384,10,1,97
7.759055205703515,8.076917745101326,18.940090274940307,1.050607179203294,3999,448,10,1,98
7.753833686653572,8.077302399121473,18.940090274940307,1.050607179203294,3999,448,10,1,99
7.753833686653572,8.077302399121473,18.940090274940307,1.050607179203294,3999,448,10,1,100
7.753833686653572,8.077302399121473,19.156408480192134,0.6644623224814189,3999,448,10,2,102
7.753833686653572,8.077302399121473,19.156408480192134,0.6644623224814189,3999,256,10,2,103
7.753833686653572,8.077302399121473,19.269407351961146,0.6644623224814189,3999,256,10,2,104
7.753833686653572,8.077302399121473,19.269407351961146,0.6644623224814189,3999,256,10,2,105
7.753833686653572,8.077302399121473,19.269407351961146,1.050607179203294,3999,256,10,2,106
7.753833686653572,8.077302399121473,19.269407351961146,1.050607179203294,3999,256,10,2,107
7.753833686653572,8.077302399121473,19.269407351961146,0.6644623224814189,3999,384,10,2,108
7.753833686653572,8.077302399121473,19.269407351961146,0.6644623224814189,3999,384,10,2,109
7.753833686653572,8.077302399121473,19.269407351961146,0.6644623224814189,3999,384,10,2,110
7.753833686653572,8.077302399121473,19.269407351961146,1.050607179203294,3999,384,10,2,111
7.753833686653572,8.077302399121473,19.269407351961146,1.050607179203294,3999,192,10,2,112
7.753833686653572,8.077302399121473,19.269407351961146,1.050607179203294,3999,192,10,2,113
7.753833686653572,8.077302399121473,19.269407351961146,1.050607179203294,3999,192,10,2,114
7.753833686653572,8.077302399121473,18.940090274940307,1.050607179203294,3999,192,10,2,115
7.753833686653572,8.077302399121473,18.940090274940307,1.050607179203294,3999,384,10,2,116
7.753833686653572,8.077302399121473,19.269407351961146,1.050607179203294,3999,384,10,2,117
7.753833686653572,8.077302399121473,19.269407351961146,1.050607179203294,3999,384,10,2,118
7.753833686653572,8.077302399121473,19.269407351961146,1.050607179203294,3999,384,10,2,119
7.753833686653572,8.077302399121473,19.269407351961146,1.050607179203294,3999,384,10,2,120
7.753833686653572,8.077302399121473,19.269407351961146,1.050607179203294,3999,384,10,2,121
7.753833686653572,8.077302399121473,19.269407351961146,0.6644623224814189,3999,448,10,2,122
7.753833686653572,8.077302399121473,19.269407351961146,0.6644623224814189,3999,448,10,2,123
7.753833686653572,8.077302399121473,19.269407351961146,0.6644623224814189,3999,448,10,2,124
7.753833686653572,8.077302399121473,19.269407351961146,0.6644623224814189,3999,448,10,2,125
7.753833686653572,8.077302399121473,18.940090274940307,0.6644623224814189,3999,448,10,2,126
7.753833686653572,8.077302399121473,19.269407351961146,0.6644623224814189,3999,448,10,2,127
7.753833686653572,8.077302399121473,19.269407351961146,0.6644623224814189,3999,448,10,2,128
7.753833686653572,8.077302399121473,19.269407351961146,0.6644623224814189,3999,448,10,2,129
7.753833686653572,8.077302399121473,19.269407351961146,0.6644623224814189,3999,448,10,2,130
7.753833686653572,8.077302399121473,19.269407351961146,1.050607179203294,3999,448,10,2,131
7.753833686653572,8.077302399121473,19.269407351961146,1.050607179203294,3999,448,10,2,132
7.753833686653572,8.077302399121473,19.269407351961146,1.050607179203294,3999,448,10,2,133
7.753833686653572,8.077302399121473,19.269407351961146,1.050607179203294,3999,448,10,2,134
7.753833686653572,8.077302399121473,19.269407351961146,1.050607179203294,3999,448,10,2,135
7.753833686653572,8.077302399121473,19.269407351961146,1.050607179203294,3999,448,10,2,136
7.753833686653572,8.077302399121473,19.269407351961146,1.050607179203294,3999,448,10,2,137
7.753833686653572,8.077302399121473,19.269407351961146,0.6644623224814189,3999,256,10,2,138
7.753833686653572,8.077302399121473,19.269407351961146,0.6644623224814189,3999,256,10,2,139
7.753833686653572,8.077302399121473,18.940090274940307,0.6644623224814189,3999,256,10,2,140
7.753833686653572,8.077302399121473,18.940090274940307,0.6644623224814189,3999,256,10,2,141
7.753833686653572,8.077302399121473,18.940090274940307,1.050607179203294,3999,256,10,2,142
7.753833686653572,8.077302399121473,18.940090274940307,0.6644623224814189,3999,256,10,2,143
7.753833686653572,8.077302399121473,18.940090274940307,0.6644623224814189,3999,256,10,2,144
7.753833686653572,8.077302399121473,18.940090274940307,0.6644623224814189,3999,256,10,2,145
7.753833686653572,8.077302399121473,18.940090274940307,0.6644623224814189,3999,256,10,2,146
7.753833686653572,8.077302399121473,18.940090274940307,0.6644623224814189,3999,256,10,2,147
7.753833686653572,8.077302399121473,18.940090274940307,0.6644623224814189,3999,384,10,2,148
7.753833686653572,8.077302399121473,18.940090274940307,0.6644623224814189,3999,384,10,2,149
7.753833686653572,8.077302399121473,18.940090274940307,0.6644623224814189,3999,384,10,2,150
7.753833686653572,8.077302399121473,19.269407351961146,1.050607179203294,3999,384,10,2,151
7.753833686653572,8.077302399121473,19.269407351961146,1.050607179203294,3999,384,10,2,152
7.753833686653572,8.077302399121473,18.940090274940307,1.0444462514822703,3999,320,10,2,153
7.753833686653572,8.077302399121473,18.940090274940307,1.0444462514822703,3999,320,10,2,154
7.753833686653572,8.077302399121473,18.940090274940307,1.050607179203294,3999,320,10,2,155
7.753833686653572,8.077302399121473,18.940090274940307,1.050607179203294,3999,320,10,2,156
7.753833686653572,8.077302399121473,18.940090274940307,1.050607179203294,3999,64,10,2,157
7.753833686653572,8.077302399121473,18.940090274940307,1.050607179203294,3999,64,10,2,158
7.753833686653572,8.077302399121473,19.269407351961146,1.050607179203294,3999,64,10,2,159
7.753833686653572,8.077302399121473,19.269407351961146,1.050607179203294,3999,64,10,2,160
7.753833686653572,8.077302399121473,18.940090274940307,1.050607179203294,3999,64,10,2,161
7.753833686653572,8.077302399121473,18.940090274940307,1.050607179203294,3999,64,10,2,162
7.753833686653572,8.077302399121473,19.269407351961146,0.6683823529411764,3999,64,10,2,163
7.753833686653572,8.077302399121473,19.269407351961146,0.6644623224814189,3999,64,10,2,164
7.753833686653572,8.077302399121473,19.269407351961146,0.6644623224814189,3999,64,10,2,165
7.753833686653572,8.077302399121473,18.940090274940307,0.6644623224814189,3999,320,10,2,166
7.753833686653572,8.077302399121473,18.940090274940307,0.6644623224814189,3999,384,10,2,167
7.753833686653572,8.077302399121473,18.940090274940307,0.6644623224814189,3999,384,10,2,168
7.753833686653572,8.077302399121473,18.940090274940307,0.6644623224814189,3999,384,10,2,169
7.753833686653572,8.077302399121473,18.940090274940307,0.6644623224814189,3999,384,10,2,170
7.753833686653572,8.077302399121473,18.940090274940307,0.6644623224814189,3999,384,10,2,171
7.753833686653572,8.077302399121473,19.269407351961146,1.0444462514822703,3999,384,10,2,172
7.753833686653572,8.077302399121473,19.269407351961146,1.050607179203294,3999,320,10,2,173
7.753833686653572,8.077302399121473,19.269407351961146,1.050607179203294,3999,320,10,2,174
7.753833686653572,8.077302399121473,19.269407351961146,1.050607179203294,3999,320,10,2,175
7.753833686653572,8.077302399121473,19.269407351961146,1.050607179203294,3999,320,10,2,176
7.753833686653572,8.077302399121473,19.269407351961146,1.050607179203294,3999,320,10,2,177
7.753833686653572,8.077302399121473,19.269407351961146,1.050607179203294,3999,256,10,2,178
7.753833686653572,8.077302399121473,19.269407351961146,1.050607179203294,3999,256,10,2,179
7.753833686653572,8.077302399121473,19.269407351961146,0.6644623224814189,3999,256,10,2,180
7.753833686653572,8.077302399121473,19.269407351961146,0.6644623224814189,3999,256,10,2,181
7.753833686653572,8.077302399121473,19.269407351961146,0.6644623224814189,3999,256,10,2,182
7.753833686653572,8.077302399121473,19.269407351961146,0.6644623224814189,3999,256,10,2,183
7.753833686653572,8.077302399121473,18.940090274940307,0.6644623224814189,3999,256,10,2,184
7.753833686653572,8.077302399121473,18.940090274940307,0.6644623224814189,3999,256,10,2,185
7.753833686653572,8.077302399121473,18.940090274940307,0.6644623224814189,3999,256,10,2,186
7.753833686653572,8.077302399121473,18.940090274940307,0.6644623224814189,3999,256,10,2,187
7.753833686653572,8.077302399121473,18.940090274940307,1.050607179203294,3999,384,10,2,188
7.753833686653572,8.077302399121473,18.940090274940307,0.6644623224814189,3999,384,10,2,189
7.753833686653572,8.077302399121473,18.940090274940307,1.050607179203294,3999,384,10,2,190
7.753833686653572,8.077302399121473,18.940090274940307,1.050607179203294,3999,384,10,2,191
7.753833686653572,8.077302399121473,18.940090274940307,1.050607179203294,3999,384,10,2,192
7.753833686653572,8.077302399121473,18.940090274940307,1.050607179203294,3999,320,10,2,193
7.753833686653572,8.077302399121473,18.940090274940307,1.050607179203294,3999,320,10,2,194
7.753833686653572,8.077302399121473,19.157703488372093,1.044516857955326,3999,320,10,2,195
7.753833686653572,8.077302399121473,19.269407351961146,1.050607179203294,3999,320,10,2,196
7.753833686653572,8.077302399121473,19.157703488372093,1.050607179203294,3999,320,10,2,197
7.753833686653572,8.077302399121473,18.940090274940307,1.050607179203294,3999,384,10,2,198
7.753833686653572,8.077302399121473,18.940090274940307,1.050607179203294,3999,384,10,2,199
7.753833686653572,8.077302399121473,18.83029544722232,1.0444462514822703,3999,384,10,2,200
7.756673041447496,8.077302399121473,18.83029544722232,1.0444462514822703,3999,384,10,1,202
43.72524548713756,45.71246759798684,18.83029544722232,1.0444462514822703,3999,384,10,1,203
43.72586641400069,45.71567023971516,18.83029544722232,1.0444462514822703,3999,384,10,1,204
43.72524548713756,45.71246759798684,18.83029544722232,1.0444462514822703,3999,320,10,1,205
43.724920341513496,45.714448665008504,18.83029544722232,1.0444462514822703,3999,320,10,1,206
43.724920341513496,45.71138326864455,18.83029544722232,1.0444462514822703,3999,320,10,1,207
43.727362035519164,45.713935891031184,18.83029544722232,1.0444462514822703,3999,320,10,1,208
43.727362035519164,45.713935891031184,18.83029544722232,1.0444462514822703,3999,320,10,1,209
43.72506647463168,45.714601447332115,18.83029544722232,1.0444462514822703,3999,320,10,1,210
43.72506647463168,45.714601447332115,18.83029544722232,1.0444462514822703,3999,320,10,1,211
43.72506647463168,45.714601447332115,18.83029544722232,1.0444462514822703,3999,320,10,1,212
43.727362035519164,45.71700145857349,18.83029544722232,1.0444462514822703,3999,320,10,1,213
43.727362035519164,45.71700145857349,18.83029544722232,1.0444462514822703,3999,256,10,1,214
43.727362035519164,45.714601447332115,18.83029544722232,1.0444462514822703,3999,256,10,1,215
43.727362035519164,45.713935891031184,18.83029544722232,1.0444462514822703,3999,256,10,1,216
43.727362035519164,45.713935891031184,18.83029544722232,1.0444462514822703,3999,0,10,1,217
43.727362035519164,45.71700145857349,18.83029544722232,1.0444462514822703,3999,0,10,1,218
43.727362035519164,45.71700145857349,18.83029544722232,1.0444462514822703,3999,192,10,1,219
43.727362035519164,45.71700145857349,18.83029544722232,1.0444462514822703,3999,192,10,1,220
43.72506647463168,45.714601447332115,18.83029544722232,1.0444462514822703,3999,448,10,1,221
43.727362035519164,45.714601447332115,18.83029544722232,1.0444462514822703,3999,448,10,1,222
43.727362035519164,45.714601447332115,18.83029544722232,1.0444462514822703,3999,448,10,1,223
43.727362035519164,45.713935891031184,18.83029544722232,1.0444462514822703,3999,448,10,1,224
43.727362035519164,45.71700145857349,18.83029544722232,1.0444462514822703,3999,448,10,1,225
43.727362035519164,45.71406187567422,18.83029544722232,1.0444462514822703,3999,448,10,1,226
43.727362035519164,45.714601447332115,18.83029544722232,1.0444462514822703,3999,448,10,1,227
43.72506647463168,45.714448665008504,18.83029544722232,1.0444462514822703,3999,256,10,1,228
43.72506647463168,45.714601447332115,18.83029544722232,1.0444462514822703,3999,256,10,1,229
43.72506647463168,45.714601447332115,18.83029544722232,1.0444462514822703,3999,256,10,1,230
43.72506647463168,45.714601447332115,18.83029544722232,1.0444462514822703,3999,256,10,1,231
43.72506647463168,45.714601447332115,18.83029544722232,1.0444462514822703,3999,256,10,1,232
43.727362035519164,45.713935891031184,18.83029544722232,1.0444462514822703,3999,320,10,1,233
43.72506647463168,45.711509497713344,18.83029544722232,1.0444462514822703,3999,320,10,1,234
43.72506647463168,45.713935891031184,18.83029544722232,1.0444462514822703,3999,320,10,1,235
43.72506647463168,45.711509497713344,18.83029544722232,1.0444462514822703,3999,320,10,1,236
43.724920341513496,45.71204905576655,18.83029544722232,1.0444462514822703,3999,320,10,1,237
43.72262516513011,45.711509497713344,18.83029544722232,1.0444462514822703,3999,384,10,1,238
43.72262516513011,45.71204905576655,18.83029544722232,1.0444462514822703,3999,384,10,1,239
43.727362035519164,45.71700145857349,18.83029544722232,1.0444462514822703,3999,384,10,1,240
43.727362035519164,45.71700145857349,18.83029544722232,1.0444462514822703,3999,384,10,1,241
43.72803438106993,45.714601447332115,18.83029544722232,1.0444462514822703,3999,384,10,1,242
43.72803438106993,45.714601447332115,18.83029544722232,1.0444462514822703,3999,256,10,1,243
43.727362035519164,45.71204905576655,18.83029544722232,1.0444462514822703,3999,256,10,1,244
43.72573904122667,45.714601447332115,18.83029544722232,1.0444462514822703,3999,256,10,1,245
43.72573904122667,45.713935891031184,18.83029544722232,1.0444462514822703,3999,256,10,1,246
43.72506647463168,45.713935891031184,18.83029544722232,1.0444462514822703,3999,256,10,1,247
43.727362035519164,45.713935891031184,18.83029544722232,1.0444462514822703,3999,448,10,1,248
43.727362035519164,45.71390934662773,18.83029544722232,1.0444462514822703,3999,448,10,1,249
43.727362035519164,45.713935891031184,18.83029544722232,1.0444462514822703,3999,448,10,1,250
43.727362035519164,45.713935891031184,18.83029544722232,1.0444462514822703,3999,448,10,1,251
43.727362035519164,45.714601447332115,18.83029544722232,1.0444462514822703,3999,448,10,1,252
43.727362035519164,45.71700145857349,18.83029544722232,1.0444462514822703,3999,448,10,1,253
43.727362035519164,45.71700145857349,18.83029544722232,1.0444462514822703,3999,256,10,1,254
43.72506647463168,45.714601447332115,18.83029544722232,1.0444462514822703,3999,256,10,1,255
43.72506647463168,45.714601447332115,18.83029544722232,1.0444462514822703,3999,256,10,1,0
43.727362035519164,45.71700145857349,18.83029544722232,1.0444462514822703,3999,256,10,1,1
43.727362035519164,45.71700145857349,18.83029544722232,1.0444462514822703,3999,256,10,1,2
43.727362035519164,45.714601447332115,18.83029544722232,1.0444462514822703,3999,448,10,1,3
43.72573904122667,45.714601447332115,18.83029544722232,1.0444462514822703,3999,448,10,1,4
43.727362035519164,45.714601447332115,18.83029544722232,1.0444462514822703,3999,448,10,1,5
43.727362035519164,45.71700145857349,18.83029544722232,1.0444462514822703,3999,448,10,1,6
43.727362035519164,45.71700145857349,18.83029544722232,1.0444462514822703,3999,192,10,1,7
43.727362035519164,45.71700145857349,18.83029544722232,1.0444462514822703,3999,0,10,1,8
43.727362035519164,45.71700145857349,18.83029544722232,1.0444462514822703,3999,0,10,1,9
43.727362035519164,45.71700145857349,18.83029544722232,1.0444462514822703,3999,0,10,1,10
43.727362035519164,45.71700145857349,18.83029544722232,1.0444462514822703,3999,0,10,1,11
43.727362035519164,45.71700145857349,18.83029544722232,1.0444462514822703,3999,0,10,1,12
43.727362035519164,45.71700145857349,18.83029544722232,1.0444462514822703,3999,128,10,1,13
43.727362035519164,45.71700145857349,18.83029544722232,1.0444462514822703,3999,128,10,1,14
43.727362035519164,45.71700145857349,18.83029544722232,1.0444462514822703,3999,128,10,1,15
43.727362035519164,45.71700145857349,18.83029544722232,1.0444462514822703,3999,384,10,1,16
43.727362035519164,45.714601447332115,18.83029544722232,1.0444462514822703,3999,448,10,1,17
43.727362035519164,45.714601447332115,18.83029544722232,1.0444462514822703,3999,448,10,1,18
43.727362035519164,45.714601447332115,18.83029544722232,1.0444462514822703,3999,448,10,1,19
43.727362035519164,45.71700145857349,18.83029544722232,1.0444462514822703,3999,448,10,1,20
43.727362035519164,45.71700145857349,18.83029544722232,1.0444462514822703,3999,448,10,1,21
43.727362035519164,45.71700145857349,18.83029544722232,1.0444462514822703,3999,320,10,1,22
43.72506647463168,45.714448665008504,18.83029544722232,1.0444462514822703,3999,320,10,1,23
43.72506647463168,45.713935891031184,18.83029544722232,1.0444462514822703,3999,320,10,1,24
43.72573904122667,45.71204905576655,18.83029544722232,1.0444462514822703,3999,320,10,1,25
43.727362035519164,45.71204905576655,18.83029544722232,1.0444462514822703,3999,320,10,1,26
43.72810985665533,45.71204905576655,18.83029544722232,1.0444462514822703,3999,256,10,1,27
43.72810985665533,45.714601447332115,18.83029544722232,1.0444462514822703,3999,256,10,1,28
43.727362035519164,45.714601447332115,18.83029544722232,1.0444462514822703,3999,256,10,1,29
43.72506647463168,45.714601447332115,18.83029544722232,1.0444462514822703,3999,256,10,1,30
43.72506647463168,45.714601447332115,18.83029544722232,1.0444462514822703,3999,256,10,1,31
43.72506647463168,45.714601447332115,18.83029544722232,1.0444462514822703,3999,256,10,1,32
43.72506647463168,45.714601447332115,18.83029544722232,1.0444462514822703,3999,256,10,1,33
43.727362035519164,45.713935891031184,18.83029544722232,1.0444462514822703,3999,256,10,1,34
43.727362035519164,45.713935891031184,18.83029544722232,1.0444462514822703,3999,256,10,1,35
43.72506647463168,45.714601447332115,18.83029544722232,1.0444462514822703,3999,256,10,1,36
43.72506647463168,45.714601447332115,18.83029544722232,1.0444462514822703,3999,256,10,1,37
43.72506647463168,45.714601447332115,18.83029544722232,1.0444462514822703,3999,320,10,1,38
43.727362035519164,45.714601447332115,18.83029544722232,1.0444462514822703,3999,320,10,1,39
43.727362035519164,45.71700145857349,18.83029544722232,1.0444462514822703,3999,320,10,1,40
43.727362035519164,45.713935891031184,18.83029544722232,1.0444462514822703,3999,320,10,1,41
43.727362035519164,45.713935891031184,18.83029544722232,1.0444462514822703,3999,320,10,1,42
43.727362035519164,45.713935891031184,18.83029544722232,1.0444462514822703,3999,384,10,1,43
43.72573904122667,45.713935891031184,18.83029544722232,1.0444462514822703,3999,384,10,1,44
43.72573904122667,45.713935891031184,18.82902257092741,1.0444462514822703,3999,384,10,2,46
43.72573904122667,45.713935891031184,8.108425673338607,8.837502161285853,3999,384,10,2,47
43.72573904122667,45.713935891031184,8.107626794622213,8.838372957705271,3999,320,10,2,48
43.72573904122667,45.713935891031184,8.107240106007326,8.83943633031086,3999,320,10,2,49
43.72573904122667,45.713935891031184,8.107240106007326,8.83943633031086,3999,320,10,2,50
43.72573904122667,45.713935891031184,8.106853433336605,8.83943633031086,3999,320,10,2,51
43.72573904122667,45.713935891031184,8.107240106007326,8.83943633031086,3999,320,10,2,52
43.72573904122667,45.713935891031184,8.106853433336605,8.83943633031086,3999,256,10,2,53
43.72573904122667,45.713935891031184,8.107265430596724,8.83943633031086,3999,256,10,2,54
43.72573904122667,45.713935891031184,8.106853433336605,8.83943633031086,3999,256,10,2,55
43.72573904122667,45.713935891031184,8.106853433336605,8.83943633031086,3999,256,10,2,56
43.72573904122667,45.713935891031184,8.106853433336605,8.83943633031086,3999,0,10,2,57
43.72573904122667,45.713935891031184,8.106853433336605,8.83943633031086,3999,0,10,2,58
43.72573904122667,45.713935891031184,8.106853433336605,8.83943633031086,3999,0,10,2,59
43.72573904122667,45.713935891031184,8.106853433336605,8.83943633031086,3999,0,10,2,60
43.72573904122667,45.713935891031184,8.106466776613756,8.839014733015262,3999,256,10,2,61
43.72573904122667,45.713935891031184,8.106466776613756,8.838987128106943,3999,320,10,2,62
43.72573904122667,45.713935891031184,8.106853433336605,8.838987128106943,3999,320,10,2,63
43.72573904122667,45.713935891031184,8.106853433336605,8.83943633031086,3999,320,10,2,64
43.72573904122667,45.713935891031184,8.107240106007326,8.839857944995478,3999,320,10,2,65
43.72573904122667,45.713935891031184,8.107240106007326,8.839857944995478,3999,320,10,2,66
43.72573904122667,45.713935891031184,8.106853433336605,8.83943633031086,3999,448,10,2,67
43.72573904122667,45.713935891031184,8.106853433336605,8.83943633031086,3999,448,10,2,68
43.72573904122667,45.713935891031184,8.107265430596724,8.83943633031086,3999,448,10,2,69
43.72573904122667,45.713935891031184,8.107265430596724,8.839463896489924,3999,448,10,2,70
43.72573904122667,45.713935891031184,8.107265430596724,8.839463896489924,3999,448,10,2,71
43.72573904122667,45.713935891031184,8.107265430596724,8.839885558063532,3999,448,10,2,72
43.72573904122667,45.713935891031184,8.107265430596724,8.839885558063532,3999,448,10,2,73
43.72573904122667,45.713935891031184,8.106853433336605,8.83943633031086,3999,448,10,2,74
43.72573904122667,45.713935891031184,8.106853433336605,8.83943633031086,3999,448,10,2,75
43.72573904122667,45.713935891031184,8.107265430596724,8.83943633031086,3999,448,10,2,76
43.72573904122667,45.713935891031184,8.107265430596724,8.839885558063532,3999,448,10,2,77
43.72573904122667,45.713935891031184,8.107265430596724,8.837529812565595,3999,448,10,2,78
43.72573904122667,45.713935891031184,8.107265430596724,8.837108266076173,3999,448,10,2,79
43.72573904122667,45.713935891031184,8.107265430596724,8.837108266076173,3999,448,10,2,80
43.72573904122667,45.713935891031184,8.107240106007326,8.83943633031086,3999,448,10,2,81
43.72573904122667,45.713935891031184,8.107240106007326,8.83943633031086,3999,448,10,2,82
43.72573904122667,45.713935891031184,8.107240106007326,8.83943633031086,3999,320,10,2,83
43.72573904122667,45.713935891031184,8.107240106007326,8.837080661683519,3999,320,10,2,84
43.72573904122667,45.713935891031184,8.106853433336605,8.836659179460696,3999,320,10,2,85
43.72573904122667,45.713935891031184,8.106853433336605,8.836659179460696,3999,320,10,2,86
43.72573904122667,45.713935891031184,8.106853433336605,8.836659179460696,3999,320,10,2,87
43.72573904122667,45.713935891031184,8.106853433336605,8.83943633031086,3999,448,10,2,88
43.72573904122667,45.713935891031184,8.106853433336605,8.83943633031086,3999,448,10,2,89
43.72573904122667,45.713935891031184,8.106853433336605,8.83943633031086,3999,448,10,2,90
43.72573904122667,45.713935891031184,8.106853433336605,8.83943633031086,3999,448,10,2,91
43.72573904122667,45.713935891031184,8.106853433336605,8.836659179460696,3999,448,10,2,92
43.72573904122667,45.713935891031184,8.106853433336605,8.836659179460696,3999,384,10,2,93
43.72573904122667,45.713935891031184,8.106853433336605,8.838987128106943,3999,384,10,2,94
43.72573904122667,45.713935891031184,8.107240106007326,8.839857944995478,3999,384,10,2,95
43.72573904122667,45.713935891031184,8.106853433336605,8.83943633031086,3999,384,10,2,96
43.72573904122667,45.713935891031184,8.107240106007326,8.839857944995478,3999,384,10,2,97
43.72573904122667,45.713935891031184,8.107265430596724,8.839885558063532,3999,256,10,2,98
43.72573904122667,45.713935891031184,8.107265430596724,8.839885558063532,3999,256,10,2,99
43.72573904122667,45.713935891031184,8.107265430596724,8.83943633031086,3999,256,10,2,100
43.72573904122667,45.713935891031184,8.106853433336605,8.83943633031086,3999,256,10,2,101
43.72573904122667,45.713935891031184,8.107265430596724,8.83943633031086,3999,64,10,2,102
43.72573904122667,45.713935891031184,8.107240106007326,8.839857944995478,3999,64,10,2,103
43.72573904122667,45.713935891031184,8.107240106007326,8.839857944995478,3999,64,10,2,104
43.72573904122667,45.713935891031184,8.106853433336605,8.83943633031086,3999,64,10,2,105
43.72573904122667,45.713935891031184,8.106853433336605,8.83943633031086,3999,64,10,2,106
43.72573904122667,45.713935891031184,8.107240106007326,8.839857944995478,3999,64,10,2,107
43.72573904122667,45.713935891031184,8.107265430596724,8.839857944995478,3999,64,10,2,108
43.72573904122667,45.713935891031184,8.107265430596724,8.839857944995478,3999,192,10,2,109
43.72573904122667,45.713935891031184,8.107265430596724,8.83943633031086,3999,192,10,2,110
43.72573904122667,45.713935891031184,8.106853433336605,8.83943633031086,3999,448,10,2,111
43.72573904122667,45.713935891031184,8.106853433336605,8.83943633031086,3999,448,10,2,112
43.72573904122667,45.713935891031184,8.107265430596724,8.839885558063532,3999,448,10,2,113
43.72573904122667,45.713935891031184,8.107265430596724,8.839885558063532,3999,448,10,2,114
43.72573904122667,45.713935891031184,8.107265430596724,8.839885558063532,3999,448,10,2,115
43.72573904122667,45.713935891031184,8.106853433336605,8.83943633031086,3999,448,10,2,116
43.72573904122667,45.713935891031184,8.106853433336605,8.83943633031086,3999,448,10,2,117
43.72573904122667,45.713935891031184,8.106853433336605,8.83943633031086,3999,384,10,2,118
43.72573904122667,45.713935891031184,8.106853433336605,8.83943633031086,3999,384,10,2,119
43.72573904122667,45.713935891031184,8.106853433336605,8.839014733015262,3999,384,10,2,120
43.72573904122667,45.713935891031184,8.106466776613756,8.839014733015262,3999,384,10,2,121
43.72573904122667,45.713935891031184,8.106466776613756,8.839014733015262,3999,384,10,2,122
43.72573904122667,45.713935891031184,8.107265430596724,8.839885558063532,3999,320,10,2,123
43.72573904122667,45.713935891031184,8.107265430596724,8.839885558063532,3999,320,10,2,124
43.72573904122667,45.713935891031184,8.107265430596724,8.839885558063532,3999,320,10,2,125
43.72573904122667,45.713935891031184,8.106853433336605,8.83943633031086,3999,320,10,2,126
43.72573904122667,45.713935891031184,8.106853433336605,8.83943633031086,3999,320,10,2,127
43.72573904122667,45.713935891031184,8.106853433336605,8.83943633031086,3999,384,10,2,128
43.72573904122667,45.713935891031184,8.107240106007326,8.839857944995478,3999,384,10,2,129
43.72573904122667,45.713935891031184,8.107240106007326,8.839857944995478,3999,384,10,2,130
43.72573904122667,45.713935891031184,8.106853433336605,8.83943633031086,3999,384,10,2,131
43.72573904122667,45.713935891031184,8.106853433336605,8.83943633031086,3999,384,10,2,132
43.72573904122667,45.713935891031184,8.106853433336605,8.83943633031086,3999,320,10,2,133
43.72573904122667,45.713935891031184,8.106853433336605,8.83943633031086,3999,320,10,2,134
43.72573904122667,45.713935891031184,8.107265430596724,8.839885558063532,3999,320,10,2,135
43.72573904122667,45.713935891031184,8.107265430596724,8.839885558063532,3999,320,10,2,136
43.72573904122667,45.713935891031184,8.107265430596724,8.839885558063532,3999,320,10,2,137
43.72573904122667,45.713935891031184,8.107265430596724,8.839885558063532,3999,448,10,2,138
43.72573904122667,45.713935891031184,8.107265430596724,8.839885558063532,3999,448,10,2,139
43.72573904122667,45.713935891031184,8.107265430596724,8.839885558063532,3999,448,10,2,140
43.72573904122667,45.713935891031184,8.107265430596724,8.839885558063532,3999,448,10,2,141
43.72573904122667,45.713935891031184,8.106853433336605,8.83943633031086,3999,448,10,2,142
43.72573904122667,45.713935891031184,8.106853433336605,8.83943633031086,3999,448,10,2,143
43.72573904122667,45.713935891031184,8.106853433336605,8.83943633031086,3999,320,10,2,144
43.72573904122667,45.714448665008504,8.106853433336605,8.83943633031086,3999,320,10,1,146
43.72573904122667,45.714867648873664,8.106853433336605,8.83943633031086,3999,320,10,1,147
43.72586641400069,45.71567023971516,8.106853433336605,8.83943633031086,3999,320,10,1,148
43.72586641400069,45.714867648873664,8.106853433336605,8.83943633031086,3999,320,10,1,149
43.72728673244964,45.713935891031184,8.106853433336605,8.83943633031086,3999,320,10,1,150
43.727362035519164,45.713935891031184,8.106853433336605,8.83943633031086,3999,320,10,1,151
43.727362035519164,45.713935891031184,8.106853433336605,8.83943633031086,3999,320,10,1,152
43.72566837723207,45.714601447332115,8.106853433336605,8.83943633031086,3999,320,10,1,153
43.72506647463168,45.714601447332115,8.106853433336605,8.83943633031086,3999,448,10,1,154
43.72506647463168,45.714601447332115,8.106853433336605,8.83943633031086,3999,448,10,1,155
43.72506647463168,45.714601447332115,8.106853433336605,8.83943633031086,3999,448,10,1,156
43.72506647463168,45.714448665008504,8.106853433336605,8.83943633031086,3999,448,10,1,157
43.727362035519164,45.714448665008504,8.106853433336605,8.83943633031086,3999,448,10,1,158
43.727362035519164,45.714448665008504,8.106853433336605,8.83943633031086,3999,320,10,1,159
43.727362035519164,45.713935891031184,8.106853433336605,8.83943633031086,3999,320,10,1,160
43.727362035519164,45.713935891031184,8.106853433336605,8.83943633031086,3999,320,10,1,161
43.72506647463168,45.714601447332115,8.106853433336605,8.83943633031086,3999,320,10,1,162
43.727362035519164,45.714601447332115,8.106853433336605,8.83943633031086,3999,64,10,1,163
43.727362035519164,45.713935891031184,8.106853433336605,8.83943633031086,3999,0,10,1,164
43.727362035519164,45.71204905576655,8.106853433336605,8.83943633031086,3999,0,10,1,165
43.727362035519164,45.71204905576655,8.106853433336605,8.83943633031086,3999,256,10,1,166
43.72262516513011,45.71204905576655,8.106853433336605,8.83943633031086,3999,256,10,1,167
43.72262516513011,45.71204905576655,8.106853433336605,8.83943633031086,3999,448,10,1,168
43.72262516513011,45.71204905576655,8.106853433336605,8.83943633031086,3999,448,10,1,169
43.72506647463168,45.71204905576655,8.106853433336605,8.83943633031086,3999,448,10,1,170
43.72506647463168,45.714601447332115,8.106853433336605,8.83943633031086,3999,448,10,1,171
43.72668970618809,45.714601447332115,8.106853433336605,8.83943633031086,3999,448,10,1,172
43.72668970618809,45.714448665008504,8.106853433336605,8.83943633031086,3999,384,10,1,173
43.727362035519164,45.714448665008504,8.106853433336605,8.83943633031086,3999,384,10,1,174
43.724920341513496,45.714448665008504,8.106853433336605,8.83943633031086,3999,384,10,1,175
43.727362035519164,45.71406187567422,8.106853433336605,8.83943633031086,3999,384,10,1,176
43.727362035519164,45.713935891031184,8.106853433336605,8.83943633031086,3999,384,10,1,177
43.727362035519164,45.713935891031184,8.106853433336605,8.83943633031086,3999,384,10,1,178
43.727362035519164,45.713935891031184,8.106853433336605,8.83943633031086,3999,384,10,1,179
43.727362035519164,45.71204905576655,8.106853433336605,8.83943633031086,3999,384,10,1,180
43.727362035519164,45.714601447332115,8.106853433336605,8.83943633031086,3999,384,10,1,181
43.72424803389128,45.71700145857349,8.106853433336605,8.83943633031086,3999,384,10,1,182
43.72424803389128,45.71700145857349,8.106853433336605,8.83943633031086,3999,256,10,1,183
43.72424803389128,45.714448665008504,8.106853433336605,8.83943633031086,3999,256,10,1,184
43.727362035519164,45.713935891031184,8.106853433336605,8.83943633031086,3999,256,10,1,185
43.72803438106993,45.714448665008504,8.106853433336605,8.83943633031086,3999,256,10,1,186
43.727362035519164,45.714601447332115,8.106853433336605,8.83943633031086,3999,256,10,1,187
43.72506647463168,45.714601447332115,8.106853433336605,8.83943633031086,3999,384,10,1,188
43.72506647463168,45.714601447332115,8.106853433336605,8.83943633031086,3999,384,10,1,189
43.727362035519164,45.713935891031184,8.106853433336605,8.83943633031086,3999,384,10,1,190
43.727362035519164,45.713935891031184,8.106853433336605,8.83943633031086,3999,384,10,1,191
43.727362035519164,45.713935891031184,8.106853433336605,8.83943633031086,3999,384,10,1,192
43.727362035519164,45.71390934662773,8.106853433336605,8.83943633031086,3999,384,10,1,193
43.727362035519164,45.71390934662773,8.106853433336605,8.83943633031086,3999,384,10,1,194
43.727362035519164,45.71390934662773,8.106853433336605,8.83943633031086,3999,384,10,1,195
43.727362035519164,45.71390934662773,8.106853433336605,8.83943633031086,3999,384,10,1,196
43.727362035519164,45.71700145857349,8.106853433336605,8.83943633031086,3999,384,10,1,197
43.727362035519164,45.71700145857349,8.106853433336605,8.83943633031086,3999,384,10,1,198
43.727362035519164,45.714601447332115,8.106853433336605,8.83943633031086,3999,256,10,1,199
43.727362035519164,45.714601447332115,8.106853433336605,8.83943633031086,3999,256,10,1,200
43.72566837723207,45.714601447332115,8.106853433336605,8.83943633031086,3999,256,10,1,201
43.727362035519164,45.713935891031184,8.106853433336605,8.83943633031086,3999,256,10,1,202
43.727362035519164,45.713935891031184,8.106853433336605,8.83943633031086,3999,256,10,1,203
43.727362035519164,45.713935891031184,8.106853433336605,8.83943633031086,3999,448,10,1,204
43.724920341513496,45.713935891031184,8.106853433336605,8.83943633031086,3999,448,10,1,205
43.724920341513496,45.714448665008504,8.106853433336605,8.83943633031086,3999,448,10,1,206
43.72506647463168,45.714601447332115,8.106853433336605,8.83943633031086,3999,448,10,1,207
43.72506647463168,45.714601447332115,8.106853433336605,8.83943633031086,3999,192,10,1,208
43.72506647463168,45.714601447332115,8.106853433336605,8.83943633031086,3999,192,10,1,209
43.72506647463168,45.714601447332115,8.106853433336605,8.83943633031086,3999,192,10,1,210
43.72506647463168,45.714601447332115,8.106853433336605,8.83943633031086,3999,192,10,1,211
43.72506647463168,45.714601447332115,8.106853433336605,8.83943633031086,3999,192,10,1,212
43.72506647463168,45.714601447332115,8.106853433336605,8.83943633031086,3999,192,10,1,213
43.72506647463168,45.714601447332115,8.106853433336605,8.83943633031086,3999,64,10,1,214
43.72506647463168,45.714601447332115,8.106853433336605,8.83943633031086,3999,64,10,1,215
43.72506647463168,45.714601447332115,8.106853433336605,8.83943633031086,3999,64,10,1,216
43.72506647463168,45.714601447332115,8.106853433336605,8.83943633031086,3999,320,10,1,217
43.72573904122667,45.714448665008504,8.106853433336605,8.83943633031086,3999,320,10,1,218
43.72573904122667,45.714601447332115,8.106853433336605,8.83943633031086,3999,320,10,1,219
43.72573904122667,45.714448665008504,8.106853433336605,8.83943633031086,3999,320,10,1,220
43.72506647463168,45.714601447332115,8.106853433336605,8.83943633031086,3999,320,10,1,221
43.72506647463168,45.714448665008504,8.106853433336605,8.83943633031086,3999,320,10,1,222
43.72506647463168,45.713935891031184,8.106853433336605,8.83943633031086,3999,256,10,1,223
43.727362035519164,45.713935891031184,8.106853433336605,8.83943633031086,3999,256,10,1,224
43.727362035519164,45.713935891031184,8.106853433336605,8.83943633031086,3999,256,10,1,225
43.727362035519164,45.714601447332115,8.106853433336605,8.83943633031086,3999,256,10,1,226
43.72668970618809,45.714601447332115,8.106853433336605,8.83943633031086,3999,256,10,1,227
43.72506647463168,45.714601447332115,8.106853433336605,8.83943633031086,3999,448,10,1,228
43.72506647463168,45.714601447332115,8.106853433336605,8.83943633031086,3999,448,10,1,229
43.72506647463168,45.714448665008504,8.106853433336605,8.83943633031086,3999,448,10,1,230
43.72506647463168,45.714601447332115,8.106853433336605,8.83943633031086,3999,448,10,1,231
43.727362035519164,45.714448665008504,8.106853433336605,8.83943633031086,3999,448,10,1,232
43.727362035519164,45.714601447332115,8.106853433336605,8.83943633031086,3999,448,10,1,233
43.727362035519164,45.71700145857349,8.106853433336605,8.83943633031086,3999,384,10,1,234
43.727362035519164,45.71700145857349,8.106853433336605,8.83943633031086,3999,384,10,1,235
43.727362035519164,45.71700145857349,8.106853433336605,8.83943633031086,3999,384,10,1,236
43.727362035519164,45.71700145857349,8.106853433336605,8.83943633031086,3999,384,10,1,237
43.727362035519164,45.71700145857349,8.106853433336605,8.83943633031086,3999,384,10,1,238
43.727362035519164,45.71700145857349,8.106853433336605,8.83943633031086,3999,320,10,1,239
43.727362035519164,45.71700145857349,8.106853433336605,8.83943633031086,3999,320,10,1,240
43.72668970618809,45.716462126630816,8.106853433336605,8.83943633031086,3999,320,10,1,241
43.72668970618809,45.71514103830626,8.106853433336605,8.83943633031086,3999,320,10,1,242
43.727362035519164,45.71514103830626,8.106853433336605,8.83943633031086,3999,320,10,1,243
43.727437692933,45.714601447332115,8.106853433336605,8.83943633031086,3999,256,10,1,244
43.727437692933,45.714601447332115,8.107240106007326,8.839857944995478,3999,256,10,2,246
43.727437692933,45.714601447332115,62.39656119888737,68.28922754720655,3999,256,10,2,247
43.727437692933,45.714601447332115,62.39656119888737,68.29085875527485,3999,256,10,2,248
43.727437692933,45.714601447332115,62.39632859531517,68.29085875527485,3999,448,10,2,249
43.727437692933,45.714601447332115,62.39632859531517,68.29085875527485,3999,448,10,2,250
43.727437692933,45.714601447332115,62.39950324065663,68.28765810020445,3999,448,10,2,251
43.727437692933,45.714601447332115,62.39950324065663,68.28765810020445,3999,448,10,2,252
43.727437692933,45.714601447332115,62.39587781990287,68.28369057674603,3999,448,10,2,253
43.727437692933,45.714601447332115,62.39587781990287,68.28369057674603,3999,320,10,2,254
43.727437692933,45.714601447332115,62.395934707820636,68.28689104585787,3999,320,10,2,255
43.727437692933,45.714601447332115,62.39950324065663,68.29085875527485,3999,320,10,2,0
43.727437692933,45.714601447332115,62.39950324065663,68.29085875527485,3999,320,10,2,1
43.727437692933,45.714601447332115,62.39910900432469,68.29009647262853,3999,128,10,2,2
43.727437692933,45.714601447332115,62.39910900432469,68.28765810020445,3999,128,10,2,3
43.727437692933,45.714601447332115,62.39950324065663,68.29009647262853,3999,128,10,2,4
43.727437692933,45.714601447332115,62.39950324065663,68.28765810020445,3999,128,10,2,5
43.727437692933,45.714601447332115,62.39950324065663,68.28765810020445,3999,384,10,2,6
43.727437692933,45.714601447332115,62.39910900432469,68.28689104585787,3999,384,10,2,7
43.727437692933,45.714601447332115,62.39950324065663,68.28765810020445,3999,384,10,2,8
43.727437692933,45.714601447332115,62.39950324065663,68.28765810020445,3999,384,10,2,9
43.727437692933,45.714601447332115,62.39950324065663,68.29086386346235,3999,384,10,2,10
43.727437692933,45.714601447332115,62.39973585022195,68.2945878907676,3999,384,10,2,11
43.727437692933,45.714601447332115,62.39973585022195,68.2945878907676,3999,448,10,2,12
43.727437692933,45.714601447332115,62.402910668920164,68.29138706092013,3999,448,10,2,13
43.727437692933,45.714601447332115,62.39950324065663,68.28765810020445,3999,448,10,2,14
43.727437692933,45.714601447332115,62.402910668920164,68.29138706092013,3999,448,10,2,15
43.727437692933,45.714601447332115,62.39910900432469,68.29009647262853,3999,448,10,2,16
43.727437692933,45.714601447332115,62.39934154527605,68.29061953136285,3999,448,10,2,17
43.727437692933,45.714601447332115,62.39910900432469,68.29009647262853,3999,448,10,2,18
43.727437692933,45.714601447332115,62.39910900432469,68.29009647262853,3999,448,10,2,19
43.727437692933,45.714601447332115,62.39910900432469,68.29009647262853,3999,448,10,2,20
43.727437692933,45.714601447332115,62.39632859531517,68.29061953136285,3999,448,10,2,21
43.727437692933,45.714601447332115,62.39910900432469,68.29061953136285,3999,448,10,2,22
43.727437692933,45.714601447332115,62.39910900432469,68.29009647262853,3999,256,10,2,23
43.727437692933,45.714601447332115,62.39910900432469,68.28765810020445,3999,256,10,2,24
43.727437692933,45.714601447332115,62.39910900432469,68.28765810020445,3999,256,10,2,25
43.727437692933,45.714601447332115,62.39632859531517,68.28765810020445,3999,256,10,2,26
43.727437692933,45.714601447332115,62.39632859531517,68.29009647262853,3999,256,10,2,27
43.727437692933,45.714601447332115,62.39910900432469,68.29086386346235,3999,448,10,2,28
43.727437692933,45.714601447332115,62.39910900432469,68.29009647262853,3999,448,10,2,29
43.727437692933,45.714601447332115,62.39934154527605,68.29061953136285,3999,448,10,2,30
43.727437692933,45.714601447332115,62.39934154527605,68.29061953136285,3999,448,10,2,31
43.727437692933,45.714601447332115,62.39950324065663,68.29086386346235,3999,448,10,2,32
43.727437692933,45.714601447332115,62.39950324065663,68.29086386346235,3999,320,10,2,33
43.727437692933,45.714601447332115,62.39950324065663,68.29086386346235,3999,320,10,2,34
43.727437692933,45.714601447332115,62.39910900432469,68.29061953136285,3999,320,10,2,35
43.727437692933,45.714601447332115,62.39910900432469,68.29061953136285,3999,320,10,2,36
43.727437692933,45.714601447332115,62.39910900432469,68.29009647262853,3999,320,10,2,37
43.727437692933,45.714601447332115,62.39910900432469,68.28765810020445,3999,320,10,2,38
43.727437692933,45.714601447332115,62.39910900432469,68.28765810020445,3999,320,10,2,39
43.727437692933,45.714601447332115,62.39910900432469,68.28765810020445,3999,320,10,2,40
43.727437692933,45.714601447332115,62.39950324065663,68.28765810020445,3999,320,10,2,41
43.727437692933,45.714601447332115,62.39632859531517,68.28765810020445,3999,320,10,2,42
43.727437692933,45.714601447332115,62.39950324065663,68.29085875527485,3999,320,10,2,43
43.727437692933,45.714601447332115,62.39910900432469,68.29009647262853,3999,320,10,2,44
43.727437692933,45.714601447332115,62.39950324065663,68.29086386346235,3999,320,10,2,45
43.727437692933,45.714601447332115,62.39950324065663,68.29009647262853,3999,320,10,2,46
43.727437692933,45.714601447332115,62.39950324065663,68.29086386346235,3999,64,10,2,47
43.727437692933,45.714601447332115,62.39950324065663,68.28765810020445,3999,64,10,2,48
43.727437692933,45.714601447332115,62.399284654252185,68.28741888750439,3999,64,10,2,49
43.727437692933,45.714601447332115,62.39910900432469,68.28741888750439,3999,64,10,2,50
43.727437692933,45.714601447332115,62.39910900432469,68.28741888750439,3999,64,10,2,51
43.727437692933,45.714601447332115,62.39910900432469,68.29009647262853,3999,64,10,2,52
43.727437692933,45.714601447332115,62.39934154527605,68.29061953136285,3999,64,10,2,53
43.727437692933,45.714601447332115,62.39950324065663,68.29061953136285,3999,192,10,2,54
43.727437692933,45.714601447332115,62.39950324065663,68.28818127262264,3999,192,10,2,55
43.727437692933,45.714601447332115,62.39950324065663,68.28818127262264,3999,448,10,2,56
43.727437692933,45.714601447332115,62.39934154527605,68.28818127262264,3999,448,10,2,57
43.727437692933,45.714601447332115,62.39934154527605,68.29061953136285,3999,320,10,2,58
43.727437692933,45.714601447332115,62.395934707820636,68.29009647262853,3999,320,10,2,59
43.727437692933,45.714601447332115,62.39950324065663,68.29009647262853,3999,320,10,2,60
43.727437692933,45.714601447332115,62.39950324065663,68.29009647262853,3999,320,10,2,61
43.727437692933,45.714601447332115,62.39950324065663,68.29009647262853,3999,320,10,2,62
43.727437692933,45.714601447332115,62.39910900432469,68.29009647262853,3999,256,10,2,63
43.727437692933,45.714601447332115,62.39910900432469,68.29009647262853,3999,256,10,2,64
43.727437692933,45.714601447332115,62.395934707820636,68.29009647262853,3999,256,10,2,65
43.727437692933,45.714601447332115,62.39587781990287,68.29009647262853,3999,256,10,2,66
43.727437692933,45.714601447332115,62.39587781990287,68.29009647262853,3999,256,10,2,67
43.727437692933,45.714601447332115,62.39587781990287,68.29009647262853,3999,320,10,2,68
43.727437692933,45.714601447332115,62.39632859531517,68.29085875527485,3999,320,10,2,69
43.727437692933,45.714601447332115,62.39950324065663,68.29086386346235,3999,320,10,2,70
43.727437692933,45.714601447332115,62.39950324065663,68.29138706092013,3999,320,10,2,71
43.727437692933,45.714601447332115,62.39950324065663,68.29138706092013,3999,320,10,2,72
43.727437692933,45.714601447332115,62.39950324065663,68.29329694197308,3999,384,10,2,73
43.727437692933,45.714601447332115,62.39910900432469,68.29086386346235,3999,384,10,2,74
43.727437692933,45.714601447332115,62.39910900432469,68.28765810020445,3999,384,10,2,75
43.727437692933,45.714601447332115,62.39632859531517,68.28765810020445,3999,384,10,2,76
43.727437692933,45.714601447332115,62.39910900432469,68.29061953136285,3999,384,10,2,77
43.727437692933,45.714601447332115,62.39910900432469,68.29138706092013,3999,320,10,2,78
43.727437692933,45.714601447332115,62.39910900432469,68.29138706092013,3999,320,10,2,79
43.727437692933,45.714601447332115,62.39973585022195,68.29138706092013,3999,320,10,2,80
43.727437692933,45.714601447332115,62.39632859531517,68.29085875527485,3999,320,10,2,81
43.727437692933,45.714601447332115,62.39632859531517,68.28765810020445,3999,320,10,2,82
43.727437692933,45.714601447332115,62.39632859531517,68.28765810020445,3999,384,10,2,83
43.727437692933,45.714601447332115,62.39950324065663,68.28765810020445,3999,384,10,2,84
43.727437692933,45.714601447332115,62.39950324065663,68.28765810020445,3999,384,10,2,85
43.727437692933,45.714601447332115,62.39950324065663,68.28765810020445,3843,384,10,2,86
43.727437692933,45.714601447332115,62.39950324065663,68.29086386346235,3283,384,10,2,87
43.727437692933,45.714601447332115,62.39950324065663,68.29086386346235,2621,384,10,2,88
43.72810985665533,45.71700145857349,62.39950324065663,68.29086386346235,1359,384,10,1,90
43.72810985665533,45.714601447332115,62.39950324065663,68.29086386346235,349,384,10,1,91
43.72586641400069,45.71300776334086,62.39950324065663,68.29086386346235,31,384,10,1,92
43.72586641400069,45.712604768757586,62.39950324065663,68.29086386346235,0,320,10,1,93
43.727362035519164,45.712604768757586,62.39950324065663,68.29086386346235,0,320,10,1,94
43.727362035519164,45.71138326864455,62.39950324065663,68.29086386346235,0,320,10,1,95
43.72506647463168,45.711509497713344,62.39950324065663,68.29086386346235,0,320,10,1,96
43.72506647463168,45.711509497713344,62.39950324065663,68.29086386346235,0,320,10,1,97
43.72573904122667,45.71514103830626,62.39950324065663,68.29086386346235,0,320,10,1,98
43.72573904122667,45.71514103830626,62.39950324065663,68.29086386346235,0,320,10,1,99
43.72506647463168,45.714601447332115,62.39950324065663,68.29086386346235,0,320,10,1,100
43.72506647463168,45.714601447332115,62.39950324065663,68.29086386346235,0,320,10,1,101
43.72573904122667,45.714601447332115,62.39950324065663,68.29086386346235,0,320,10,1,102
43.727362035519164,45.714601447332115,62.39950324065663,68.29086386346235,0,320,10,1,103
43.72573904122667,45.714601447332115,62.39950324065663,68.29086386346235,0,320,10,1,104
43.72506647463168,45.714601447332115,62.39950324065663,68.29086386346235,0,320,10,1,105
43.72506647463168,45.714601447332115,62.39950324065663,68.29086386346235,0,320,10,1,106
43.72506647463168,45.714601447332115,62.39950324065663,68.29086386346235,0,320,10,1,107
43.72506647463168,45.714601447332115,62.39950324065663,68.29086386346235,0,320,10,1,108
43.72506647463168,45.714601447332115,62.39950324065663,68.29086386346235,0,448,10,1,109
43.72506647463168,45.713935891031184,62.39950324065663,68.29086386346235,0,448,10,1,110
43.72262516513011,45.71204905576655,62.39950324065663,68.29086386346235,0,448,10,1,111
43.72506647463168,45.713935891031184,62.39950324065663,68.29086386346235,0,448,10,1,112
43.72506647463168,45.71390934662773,62.39950324065663,68.29086386346235,0,448,10,1,113
43.727362035519164,45.714601447332115,62.39950324065663,68.29086386346235,0,320,10,1,114
43.727362035519164,45.71700145857349,62.39950324065663,68.29086386346235,0,320,10,1,115
43.727362035519164,45.71700145857349,62.39950324065663,68.29086386346235,0,320,10,1,116
43.72424803389128,45.71390934662773,62.39950324065663,68.29086386346235,0,320,10,1,117
43.72424803389128,45.71390934662773,62.39950324065663,68.29086386346235,0,192,10,1,118
43.72668970618809,45.713935891031184,62.39950324065663,68.29086386346235,0,192,10,1,119
43.72668970618809,45.714601447332115,62.39950324065663,68.29086386346235,0,192,10,1,120
43.72668970618809,45.714601447332115,62.39950324065663,68.29086386346235,0,192,10,1,121
43.72506647463168,45.714475620839465,62.39950324065663,68.29086386346235,0,320,10,1,122
43.72506647463168,45.714475620839465,62.39950324065663,68.29086386346235,0,320,10,1,123
43.724920341513496,45.714448665008504,62.39950324065663,68.29086386346235,0,320,10,1,124
43.72506647463168,45.714601447332115,62.39950324065663,68.29086386346235,0,320,10,1,125
43.72506647463168,45.714601447332115,62.39950324065663,68.29086386346235,0,320,10,1,126
43.727362035519164,45.71700145857349,62.39950324065663,68.29086386346235,0,320,10,1,127
43.727362035519164,45.714601447332115,62.39950324065663,68.29086386346235,0,384,10,1,128
43.727362035519164,45.714601447332115,62.39950324065663,68.29086386346235,0,384,10,1,129
43.727362035519164,45.714601447332115,62.39950324065663,68.29086386346235,0,384,10,1,130
43.72506647463168,45.71700145857349,62.39950324065663,68.29086386346235,0,384,10,1,131
43.727362035519164,45.71700145857349,62.39950324065663,68.29086386346235,0,384,10,1,132
43.724920341513496,45.71700145857349,62.39950324065663,68.29086386346235,0,256,10,1,133
43.727362035519164,45.714601447332115,62.39950324065663,68.29086386346235,0,256,10,1,134
43.72506647463168,45.714601447332115,62.39950324065663,68.29086386346235,0,256,10,1,135
43.72668970618809,45.714601447332115,62.39950324065663,68.29086386346235,0,256,10,1,136
43.72668970618809,45.713935891031184,62.39950324065663,68.29086386346235,0,256,10,1,137
43.727362035519164,45.713935891031184,62.39950324065663,68.29086386346235,0,448,10,1,138
43.727362035519164,45.713935891031184,62.39950324065663,68.29086386346235,0,448,10,1,139
43.72506647463168,45.713935891031184,62.39950324065663,68.29086386346235,0,448,10,1,140
43.72506647463168,45.714601447332115,62.39950324065663,68.29086386346235,0,448,10,1,141
43.72506647463168,45.714601447332115,62.39950324065663,68.29086386346235,0,448,10,1,142
43.727362035519164,45.71700145857349,62.39950324065663,68.29086386346235,0,448,10,1,143
43.727362035519164,45.71700145857349,62.39950324065663,68.29086386346235,0,448,10,1,144
43.72506647463168,45.714601447332115,62.39950324065663,68.29086386346235,0,448,10,1,145
43.72424803389128,45.71204905576655,62.39950324065663,68.29086386346235,0,448,10,1,146
43.72424803389128,45.71204905576655,62.39950324065663,68.29086386346235,0,448,10,1,147
43.724920341513496,45.714448665008504,62.39950324065663,68.29086386346235,0,448,10,1,148
43.72506647463168,45.714601447332115,62.39950324065663,68.29086386346235,0,256,10,1,149
43.72506647463168,45.714601447332115,62.39950324065663,68.29086386346235,0,256,10,1,150
43.727362035519164,45.71700145857349,62.39950324065663,68.29086386346235,0,256,10,1,151
43.727362035519164,45.71700145857349,62.39950324065663,68.29086386346235,0,256,10,1,152
43.727362035519164,45.713935891031184,62.39950324065663,68.29086386346235,0,256,10,1,153
43.727362035519164,45.713935891031184,62.39950324065663,68.29086386346235,0,384,10,1,154
43.727362035519164,45.713935891031184,62.39950324065663,68.29086386346235,0,384,10,1,155
43.727362035519164,45.714601447332115,62.39950324065663,68.29086386346235,0,384,10,1,156
43.727362035519164,45.71700145857349,62.39950324065663,68.29086386346235,0,384,10,1,157
43.727362035519164,45.71700145857349,62.39950324065663,68.29086386346235,0,384,10,1,158
43.727362035519164,45.71700145857349,62.39950324065663,68.29086386346235,0,320,10,1,159
43.727362035519164,45.714601447332115,62.39950324065663,68.29086386346235,0,320,10,1,160
43.727362035519164,45.713935891031184,62.39950324065663,68.29086386346235,0,320,10,1,161
43.727362035519164,45.713935891031184,62.39950324065663,68.29086386346235,0,320,10,1,162
43.727362035519164,45.71700145857349,62.39950324065663,68.29086386346235,0,320,10,1,163
43.727362035519164,45.71700145857349,62.39950324065663,68.29086386346235,0,256,10,1,164
43.727362035519164,45.714601447332115,62.39950324065663,68.29086386346235,0,256,10,1,165
43.72810985665533,45.714601447332115,62.39950324065663,68.29086386346235,0,256,10,1,166
43.724920341513496,45.716462126630816,62.39950324065663,68.29086386346235,0,256,10,1,167
43.727362035519164,45.71700145857349,62.39950324065663,68.29086386346235,0,128,10,1,168
43.724920341513496,45.71700145857349,62.39950324065663,68.29086386346235,0,128,10,1,169
43.72506647463168,45.71700145857349,62.39950324065663,68.29086386346235,0,128,10,1,170
43.72506647463168,45.714601447332115,62.39950324065663,68.29086386346235,0,128,10,1,171
43.72506647463168,45.714601447332115,62.39950324065663,68.29086386346235,0,320,10,1,172
43.727362035519164,45.714601447332115,62.39950324065663,68.29086386346235,0,320,10,1,173
43.72506647463168,45.714601447332115,62.39950324065663,68.29086386346235,0,320,10,1,174
43.727362035519164,45.71700145857349,62.39950324065663,68.29086386346235,0,320,10,1,175
43.724920341513496,45.714601447332115,62.39950324065663,68.29086386346235,0,320,10,1,176
43.724920341513496,45.714601447332115,62.39950324065663,68.29086386346235,0,320,10,1,177
43.724920341513496,45.714601447332115,62.39950324065663,68.29086386346235,0,448,10,1,178
43.72506647463168,45.714601447332115,62.39950324065663,68.29086386346235,0,448,10,1,179
43.72506647463168,45.714601447332115,62.39950324065663,68.29086386346235,0,448,10,1,180
43.72506647463168,45.714601447332115,62.39950324065663,68.29086386346235,0,448,10,1,181
43.727362035519164,45.71700145857349,62.39950324065663,68.29086386346235,0,448,10,1,182
43.727362035519164,45.71700145857349,62.39950324065663,68.29086386346235,0,448,10,1,183
43.727362035519164,45.714601447332115,62.39950324065663,68.29086386346235,0,448,10,1,184
43.72506647463168,45.71406187567422,62.39950324065663,68.29086386346235,0,448,10,1,185
43.724920341513496,45.71406187567422,62.39950324065663,68.29086386346235,0,448,10,1,186
43.724920341513496,45.713935891031184,62.39950324065663,68.29086386346235,0,448,10,1,187
43.72506647463168,45.714448665008504,62.39950324065663,68.29086386346235,0,448,10,1,188
43.72506647463168,45.714448665008504,62.39632859531517,68.28765810020445,0,320,10,2,190
43.72506647463168,45.714448665008504,62.393399887646616,68.2874140795897,0,320,10,2,191
43.72506647463168,45.714448665008504,62.393399887646616,68.2874140795897,0,320,10,2,192
43.72506647463168,45.714448665008504,62.39950324065663,68.29086386346235,0,320,10,2,193
43.72506647463168,45.714448665008504,62.39950324065663,68.29086386346235,0,448,10,2,194
43.72506647463168,45.714448665008504,62.39309722026394,68.28765810020445,0,448,10,2,195
43.72506647463168,45.714448665008504,62.39309722026394,68.28765810020445,0,448,10,2,196
43.72506647463168,45.714448665008504,62.39587781990287,68.29009647262853,0,448,10,2,197
43.72506647463168,45.714448665008504,62.395934707820636,68.29009647262853,0,448,10,2,198
43.72506647463168,45.714448665008504,62.39910900432469,68.29009647262853,0,384,10,2,199
43.72506647463168,45.714448665008504,62.39910900432469,68.29009647262853,0,384,10,2,200
43.72506647463168,45.714448665008504,62.39587781990287,68.28689615374857,0,384,10,2,201
43.72506647463168,45.714448665008504,62.3927033590088,68.28689104585787,0,384,10,2,202
43.72506647463168,45.714448665008504,62.3927033590088,68.28689104585787,0,384,10,2,203
43.72506647463168,45.714448665008504,62.3927033590088,68.28689104585787,0,320,10,2,204
43.72506647463168,45.714448665008504,62.3927033590088,68.28689104585787,0,320,10,2,205
43.72506647463168,45.714448665008504,62.39632859531517,68.28765810020445,0,320,10,2,206
43.72506647463168,45.714448665008504,62.39632859531517,68.28765810020445,0,320,10,2,207
43.72506647463168,45.714448665008504,62.39632859531517,68.28765810020445,0,320,10,2,208
43.72506647463168,45.714448665008504,62.39950324065663,68.28765810020445,0,448,10,2,209
43.72506647463168,45.714448665008504,62.39950324065663,68.28765810020445,0,448,10,2,210
43.72506647463168,45.714448665008504,62.39910900432469,68.28765810020445,0,448,10,2,211
43.72506647463168,45.714448665008504,62.39910900432469,68.29009647262853,0,448,10,2,212
43.72506647463168,45.714448665008504,62.39910900432469,68.29009647262853,0,448,10,2,213
43.72506647463168,45.714448665008504,62.39910900432469,68.29009647262853,0,448,10,2,214
43.72506647463168,45.714448665008504,62.39632859531517,68.29009647262853,0,448,10,2,215
43.72506647463168,45.714448665008504,62.39632859531517,68.29086386346235,0,448,10,2,216
43.72506647463168,45.714448665008504,62.39950324065663,68.29086386346235,0,448,10,2,217
43.72506647463168,45.714448665008504,62.39950324065663,68.29086386346235,0,448,10,2,218
43.72506647463168,45.714448665008504,62.39950324065663,68.29085875527485,0,384,10,2,219
43.72506647463168,45.714448665008504,62.39564560181412,68.28957339046417,0,384,10,2,220
43.72506647463168,45.714448665008504,62.39564560181412,68.28957339046417,0,384,10,2,221
43.72506647463168,45.714448665008504,62.39564560181412,68.28957339046417,0,384,10,2,222
43.72506647463168,45.714448665008504,62.39609597386079,68.28713490440312,0,128,10,2,223
43.72506647463168,45.714448665008504,62.39910900432469,68.29009647262853,0,128,10,2,224
43.72506647463168,45.714448665008504,62.39910900432469,68.29009647262853,0,192,10,2,225
43.72506647463168,45.714448665008504,62.39910900432469,68.29009647262853,0,192,10,2,226
43.72506647463168,45.714448665008504,62.39910900432469,68.29009647262853,0,192,10,2,227
43.72506647463168,45.714448665008504,62.39910900432469,68.29009647262853,0,448,10,2,228
43.72506647463168,45.714448665008504,62.39910900432469,68.29009647262853,0,448,10,2,229
43.72506647463168,45.714448665008504,62.39950324065663,68.29086386346235,0,384,10,2,230
43.72506647463168,45.714448665008504,62.39950324065663,68.29086386346235,0,384,10,2,231
43.72506647463168,45.714448665008504,62.39950324065663,68.29086386346235,0,384,10,2,232
43.72506647463168,45.714448665008504,62.39910900432469,68.29009647262853,0,384,10,2,233
43.72506647463168,45.714448665008504,62.39910900432469,68.29009647262853,0,256,10,2,234
43.72506647463168,45.714448665008504,62.39587781990287,68.29009647262853,0,256,10,2,235
43.72506647463168,45.714448665008504,62.39609597386079,68.29009647262853,0,256,10,2,236
43.72506647463168,45.714448665008504,62.39609597386079,68.29009647262853,0,256,10,2,237
43.72506647463168,45.714448665008504,62.39609597386079,68.29009647262853,0,256,10,2,238
43.72506647463168,45.714448665008504,62.39632859531517,68.29009647262853,0,256,10,2,239
43.72506647463168,45.714448665008504,62.39587781990287,68.28765810020445,0,256,10,2,240
43.72506647463168,45.714448665008504,62.39632859531517,68.28765810020445,0,256,10,2,241
43.72506647463168,45.714448665008504,62.39632859531517,68.28765810020445,0,256,10,2,242
43.72506647463168,45.714448665008504,62.39632859531517,68.29009647262853,0,256,10,2,243
43.72506647463168,45.714448665008504,62.39632859531517,68.29086386346235,0,384,10,2,244
43.72506647463168,45.714448665008504,62.395702154934796,68.29009647262853,0,384,10,2,245
43.72506647463168,45.714448665008504,62.395934707820636,68.28689104585787,0,384,10,2,246
43.72506647463168,45.714448665008504,62.395934707820636,68.28689104585787,0,384,10,2,247
43.72506647463168,45.714448665008504,62.39910900432469,68.29009647262853,0,384,10,2,248
43.72506647463168,45.714448665008504,62.39910900432469,68.29009647262853,0,320,10,2,249
43.72506647463168,45.714448665008504,62.39910900432469,68.29009647262853,0,320,10,2,250
43.72506647463168,45.714448665008504,62.395934707820636,68.29009647262853,0,320,10,2,251
43.72506647463168,45.714448665008504,62.39956013187979,68.29406436829213,0,320,10,2,252
43.72506647463168,45.714448665008504,62.39956013187979,68.29406436829213,0,320,10,2,253
43.72506647463168,45.714448665008504,62.40273461282166,68.29406436829213,0,256,10,2,254
43.72506647463168,45.714448665008504,62.39956013187979,68.29406436829213,0,256,10,2,255
43.72506647463168,45.714448665008504,62.39587781990287,68.29009647262853,0,256,10,2,0
43.72506647463168,45.714448665008504,62.39587781990287,68.29009647262853,0,256,10,2,1
43.72506647463168,45.714448665008504,62.39632859531517,68.29406436829213,0,256,10,2,2
43.72506647463168,45.714448665008504,62.39950324065663,68.29406436829213,0,256,10,2,3
43.72506647463168,45.714448665008504,62.40273461282166,68.29085875527485,0,256,10,2,4
43.72506647463168,45.714448665008504,62.40273461282166,68.29085875527485,0,256,10,2,5
43.72506647463168,45.714448665008504,62.39973585022195,68.29086386346235,0,256,10,2,6
43.72506647463168,45.714448665008504,62.39950324065663,68.29086386346235,0,256,10,2,7
43.72506647463168,45.714448665008504,62.39934154527605,68.29061953136285,0,256,10,2,8
43.72506647463168,45.714448665008504,62.39934154527605,68.29061953136285,0,384,10,2,9
43.72506647463168,45.714448665008504,62.39934154527605,68.29061953136285,0,384,10,2,10
43.72506647463168,45.714448665008504,62.39950324065663,68.29086386346235,0,384,10,2,11
43.72506647463168,45.714448665008504,62.39910900432469,68.29009647262853,0,384,10,2,12
43.72506647463168,45.714448665008504,62.396110020031564,68.29061953136285,0,384,10,2,13
43.72506647463168,45.714448665008504,62.39587781990287,68.29009647262853,0,320,10,2,14
43.72506647463168,45.714448665008504,62.396110020031564,68.29061953136285,0,320,10,2,15
43.72506647463168,45.714448665008504,62.39910900432469,68.29009647262853,0,320,10,2,16
43.72506647463168,45.714448665008504,62.39950324065663,68.29086386346235,0,320,10,2,17
43.72506647463168,45.714448665008504,62.39910900432469,68.29009647262853,0,64,10,2,18
43.72506647463168,45.714448665008504,62.39950324065663,68.29086386346235,0,0,10,2,19
43.72506647463168,45.714448665008504,62.39632859531517,68.29009647262853,0,0,10,2,20
43.72506647463168,45.714448665008504,62.39632859531517,68.28765810020445,0,0,10,2,21
43.72506647463168,45.714448665008504,62.39632859531517,68.28689615374857,0,256,10,2,22
43.72506647463168,45.714448665008504,62.395934707820636,68.28689104585787,0,320,10,2,23
43.72506647463168,45.714448665008504,62.39910900432469,68.28689104585787,0,320,10,2,24
43.72506647463168,45.714448665008504,62.39910900432469,68.29009647262853,0,320,10,2,25
43.72506647463168,45.714448665008504,62.39910900432469,68.29009647262853,0,320,10,2,26
43.72506647463168,45.714448665008504,62.39910900432469,68.29009647262853,0,320,10,2,27
43.72506647463168,45.714448665008504,62.39950324065663,68.29406436829213,0,256,10,2,28
43.72506647463168,45.714448665008504,62.39632859531517,68.29086386346235,0,256,10,2,29
43.72506647463168,45.714448665008504,62.39910900432469,68.29086386346235,0,256,10,2,30
43.72506647463168,45.714448665008504,62.39632859531517,68.29009647262853,0,256,10,2,31
43.72506647463168,45.714448665008504,62.39632859531517,68.28765810020445,0,256,10,2,32
43.727362035519164,45.713935891031184,62.39632859531517,68.28765810020445,0,320,10,1,34
55.86607772663926,30.241168014294427,62.39632859531517,68.28765810020445,0,320,10,1,35
55.86650513646378,23.976798235044054,62.39632859531517,68.28765810020445,0,320,10,1,36
55.86650513646378,23.976798235044054,62.39632859531517,68.28765810020445,0,320,10,1,37
55.869598402193766,23.976798235044054,62.39632859531517,68.28765810020445,0,256,10,1,38
55.86970089039342,23.97433379856592,62.39632859531517,68.28765810020445,0,256,10,1,39
55.86970089039342,23.97433379856592,62.39632859531517,68.28765810020445,0,256,10,1,40
55.86683487748138,23.97433379856592,62.39632859531517,68.28765810020445,0,256,10,1,41
55.86683487748138,23.97436522835902,62.39632859531517,68.28765810020445,0,256,10,1,42
55.86970089039342,23.97433379856592,62.39632859531517,68.28765810020445,0,384,10,1,43
55.86970089039342,23.97433379856592,62.39632859531517,68.28765810020445,0,384,10,1,44
55.86970089039342,23.97433379856592,62.39632859531517,68.28765810020445,0,384,10,1,45
55.86970089039342,23.97433379856592,62.39632859531517,68.28765810020445,0,384,10,1,46
55.8668295256815,23.97433379856592,62.39632859531517,68.28765810020445,0,384,10,1,47
55.866726748176795,23.975644564371308,62.39632859531517,68.28765810020445,0,320,10,1,48
55.866726748176795,23.975644564371308,62.39632859531517,68.28765810020445,0,320,10,1,49
55.8668295256815,23.97609213637418,62.39632859531517,68.28765810020445,0,320,10,1,50
55.86683487748138,23.97609213637418,62.39632859531517,68.28765810020445,0,320,10,1,51
55.86970089039342,23.97433379856592,62.39632859531517,68.28765810020445,0,320,10,1,52
55.86970089039342,23.97260639403223,62.39632859531517,68.28765810020445,0,320,10,1,53
55.866652119234374,23.971295794325805,62.39632859531517,68.28765810020445,0,448,10,1,54
55.866652119234374,23.971295794325805,62.39632859531517,68.28765810020445,0,448,10,1,55
55.866652119234374,23.974286800558847,62.39632859531517,68.28765810020445,0,448,10,1,56
55.86683487748138,23.97436522835902,62.39632859531517,68.28765810020445,0,448,10,1,57
55.86683487748138,23.97436522835902,62.39632859531517,68.28765810020445,0,448,10,1,58
55.86672140763912,23.97436522835902,62.39632859531517,68.28765810020445,0,384,10,1,59
55.86672140763912,23.97433379856592,62.39632859531517,68.28765810020445,0,384,10,1,60
55.86683487748138,23.977324425828844,62.39632859531517,68.28765810020445,0,384,10,1,61
55.86970089039342,23.975644564371308,62.39632859531517,68.28765810020445,0,384,10,1,62
55.86683487748138,23.975644564371308,62.39632859531517,68.28765810020445,0,384,10,1,63
55.866652119234374,23.975644564371308,62.39632859531517,68.28765810020445,0,256,10,1,64
55.866652119234374,23.97609213637418,62.39632859531517,68.28765810020445,0,256,10,1,65
55.86970089039342,23.97609213637418,62.39632859531517,68.28765810020445,0,256,10,1,66
55.86970089039342,23.977324425828844,62.39632859531517,68.28765810020445,0,256,10,1,67
55.86970089039342,23.97609213637418,62.39632859531517,68.28765810020445,0,256,10,1,68
55.86970089039342,23.97609213637418,62.39632859531517,68.28765810020445,0,384,10,1,69
55.86970655644523,23.97609213637418,62.39632859531517,68.28765810020445,0,384,10,1,70
55.86970655644523,23.97260639403223,62.39632859531517,68.28765810020445,0,384,10,1,71
55.86970089039342,23.97260639403223,62.39632859531517,68.28765810020445,0,384,10,1,72
55.86970089039342,23.97433379856592,62.39632859531517,68.28765810020445,0,128,10,1,73
55.86970089039342,23.975644564371308,62.39632859531517,68.28765810020445,0,128,10,1,74
55.86970089039342,23.975644564371308,62.39632859531517,68.28765810020445,0,128,10,1,75
55.86970089039342,23.97609213637418,62.39632859531517,68.28765810020445,0,128,10,1,76
55.86970089039342,23.97609213637418,62.39632859531517,68.28765810020445,0,128,10,1,77
55.8668295256815,23.97609213637418,62.39632859531517,68.28765810020445,0,384,10,1,78
55.869598402193766,23.97687695724683,62.39632859531517,68.28765810020445,0,448,10,1,79
55.869598402193766,23.975644564371308,62.39632859531517,68.28765810020445,0,448,10,1,80
55.86970089039342,23.975644564371308,62.39632859531517,68.28765810020445,0,448,10,1,81
55.86970089039342,23.97433379856592,62.39632859531517,68.28765810020445,0,448,10,1,82
55.86970089039342,23.97433379856592,62.39632859531517,68.28765810020445,0,320,10,1,83
55.86683487748138,23.975644564371308,62.39632859531517,68.28765810020445,0,320,10,1,84
55.86683487748138,23.977324425828844,62.39632859531517,68.28765810020445,0,320,10,1,85
55.86683487748138,23.977324425828844,62.39632859531517,68.28765810020445,0,320,10,1,86
55.86654365690653,23.975565989314678,62.39632859531517,68.28765810020445,0,320,10,1,87
55.86654365690653,23.973101662811406,62.39632859531517,68.28765810020445,0,448,10,1,88
55.866652119234374,23.97433379856592,62.39632859531517,68.28765810020445,0,448,10,1,89
55.866652119234374,23.97260639403223,62.39632859531517,68.28765810020445,0,448,10,1,90
55.866726748176795,23.97433379856592,62.39632859531517,68.28765810020445,0,448,10,1,91
55.86970089039342,23.975644564371308,62.39632859531517,68.28765810020445,0,448,10,1,92
55.86970089039342,23.975644564371308,62.39632859531517,68.28765810020445,0,448,10,1,93
55.8668295256815,23.975644564371308,62.39632859531517,68.28765810020445,0,448,10,1,94
55.86676056979648,23.97609213637418,62.39632859531517,68.28765810020445,0,448,10,1,95
55.86676056979648,23.97609213637418,62.39632859531517,68.28765810020445,0,448,10,1,96
55.86676056979648,23.975597563794686,62.39632859531517,68.28765810020445,0,448,10,1,97
55.8668295256815,23.973101662811406,62.39632859531517,68.28765810020445,0,448,10,1,98
55.86970655644523,23.975597563794686,62.39632859531517,68.28765810020445,0,320,10,1,99
55.86970089039342,23.975597563794686,62.39632859531517,68.28765810020445,0,320,10,1,100
55.86970655644523,23.975644564371308,62.39632859531517,68.28765810020445,0,320,10,1,101
55.86970655644523,23.975644564371308,62.39632859531517,68.28765810020445,0,320,10,1,102
55.86970655644523,23.975644564371308,62.39632859531517,68.28765810020445,0,320,10,1,103
55.86970655644523,23.975644564371308,62.39632859531517,68.28765810020445,0,384,10,1,104
55.866726748176795,23.977324425828844,62.39632859531517,68.28765810020445,0,384,10,1,105
55.866726748176795,23.975644564371308,62.39632859531517,68.28765810020445,0,384,10,1,106
55.86970655644523,23.975644564371308,62.39632859531517,68.28765810020445,0,384,10,1,107
55.86970655644523,23.97433379856592,62.39632859531517,68.28765810020445,0,384,10,1,108
55.86970089039342,23.97433379856592,62.39632859531517,68.28765810020445,0,320,10,1,109
55.86970089039342,23.97433379856592,62.39632859531517,68.28765810020445,0,320,10,1,110
55.86970089039342,23.97433379856592,62.39632859531517,68.28765810020445,0,320,10,1,111
55.8668295256815,23.97433379856592,62.39632859531517,68.28765810020445,0,320,10,1,112
55.8668295256815,23.973101662811406,62.39632859531517,68.28765810020445,0,320,10,1,113
55.8668295256815,23.97433379856592,62.39632859531517,68.28765810020445,0,320,10,1,114
55.86970655644523,23.975597563794686,62.39632859531517,68.28765810020445,0,320,10,1,115
55.86970089039342,23.975597563794686,62.39632859531517,68.28765810020445,0,320,10,1,116
55.86970089039342,23.975597563794686,62.39632859531517,68.28765810020445,0,320,10,1,117
55.86970089039342,23.97260639403223,62.39632859531517,68.28765810020445,0,320,10,1,118
55.86970655644523,23.97260639403223,62.39632859531517,68.28765810020445,0,448,10,1,119
55.86970655644523,23.97137421234141,62.39632859531517,68.28765810020445,0,448,10,1,120
55.86970089039342,23.97137421234141,62.39632859531517,68.28765810020445,0,448,10,1,121
55.86970089039342,23.97433379856592,62.39632859531517,68.28765810020445,0,448,10,1,122
55.86970089039342,23.97433379856592,62.39632859531517,68.28765810020445,0,192,10,1,123
55.86970089039342,23.97433379856592,62.39632859531517,68.28765810020445,0,192,10,1,124
55.86970089039342,23.975597563794686,62.39632859531517,68.28765810020445,0,0,10,1,125
55.86970655644523,23.975597563794686,62.39632859531517,68.28765810020445,0,0,10,1,126
55.86970655644523,23.975597563794686,62.39632859531517,68.28765810020445,0,256,10,1,127
55.86683487748138,23.973101662811406,62.39632859531517,68.28765810020445,0,256,10,1,128
55.86683487748138,23.973101662811406,62.39632859531517,68.28765810020445,0,256,10,1,129
55.86683487748138,23.97609213637418,62.39632859531517,68.28765810020445,0,256,10,1,130
55.8668295256815,23.97609213637418,62.39632859531517,68.28765810020445,0,256,10,1,131
55.8668295256815,23.97609213637418,62.39632859531517,68.28765810020445,0,256,10,1,132
55.8668295256815,23.97609213637418,62.39632859531517,68.28765810020445,0,448,10,2,134
55.8668295256815,23.97609213637418,62.3972009969677,68.29138225272601,0,448,10,2,135
55.8668295256815,23.97609213637418,62.3972009969677,68.29138225272601,0,448,10,2,136
55.8668295256815,23.97609213637418,62.39973585022195,68.29138225272601,0,448,10,2,137
55.8668295256815,23.97609213637418,62.396110020031564,68.29061953136285,0,448,10,2,138
55.8668295256815,23.97609213637418,62.39910900432469,68.29061953136285,0,384,10,2,139
55.8668295256815,23.97609213637418,62.39632859531517,68.29009647262853,0,384,10,2,140
55.8668295256815,23.97609213637418,62.39632859531517,68.29009647262853,0,384,10,2,141
55.8668295256815,23.97609213637418,62.39632859531517,68.29086386346235,0,384,10,2,142
55.8668295256815,23.97609213637418,62.39632859531517,68.29086386346235,0,384,10,2,143
55.8668295256815,23.97609213637418,62.39632859531517,68.29086386346235,0,320,10,2,144
55.8668295256815,23.97609213637418,62.39632859531517,68.29085875527485,0,320,10,2,145
55.8668295256815,23.97609213637418,62.39632859531517,68.29085875527485,0,320,10,2,146
55.8668295256815,23.97609213637418,62.39632859531517,68.29085875527485,0,320,10,2,147
55.8668295256815,23.97609213637418,62.39632859531517,68.29085875527485,0,320,10,2,148
55.8668295256815,23.97609213637418,62.39950324065663,68.29086386346235,0,384,10,2,149
55.8668295256815,23.97609213637418,62.39950324065663,68.29086386346235,0,384,10,2,150
55.8668295256815,23.97609213637418,62.39910900432469,68.29009647262853,0,384,10,2,151
55.8668295256815,23.97609213637418,62.39910900432469,68.29009647262853,0,384,10,2,152
55.8668295256815,23.97609213637418,62.39910900432469,68.29009647262853,0,384,10,2,153
55.8668295256815,23.97609213637418,62.39910900432469,68.29009647262853,0,256,10,2,154
55.8668295256815,23.97609213637418,62.39950324065663,68.29086386346235,0,256,10,2,155
55.8668295256815,23.97609213637418,62.39950324065663,68.29086386346235,0,256,10,2,156
55.8668295256815,23.97609213637418,62.39910900432469,68.29009647262853,0,256,10,2,157
55.8668295256815,23.97609213637418,62.39910900432469,68.29009647262853,0,256,10,2,158
55.8668295256815,23.97609213637418,62.39632859531517,68.2893291178542,0,320,10,2,159
55.8668295256815,23.97609213637418,62.39950324065663,68.29086386346235,0,320,10,2,160
55.8668295256815,23.97609213637418,62.399270613173506,68.2903406425922,0,320,10,2,161
55.8668295256815,23.97609213637418,62.39950324065663,68.29086386346235,0,320,10,2,162
55.8668295256815,23.97609213637418,62.399270613173506,68.2903406425922,0,320,10,2,163
55.8668295256815,23.97609213637418,62.39910900432469,68.29009647262853,0,320,10,2,164
55.8668295256815,23.97609213637418,62.39910900432469,68.29009647262853,0,320,10,2,165
55.8668295256815,23.97609213637418,62.39632859531517,68.28765810020445,0,320,10,2,166
55.8668295256815,23.97609213637418,62.39632859531517,68.28765810020445,0,320,10,2,167
55.8668295256815,23.97609213637418,62.39632859531517,68.28765810020445,0,64,10,2,168
55.8668295256815,23.97609213637418,62.39632859531517,68.28765810020445,0,64,10,2,169
55.8668295256815,23.97609213637418,62.39910900432469,68.29009647262853,0,0,10,2,170
55.8668295256815,23.97609213637418,62.39910900432469,68.29009647262853,0,0,10,2,171
55.8668295256815,23.97609213637418,62.39910900432469,68.28765810020445,0,256,10,2,172
55.8668295256815,23.97609213637418,62.395934707820636,68.28689104585787,0,256,10,2,173
55.8668295256815,23.97609213637418,62.39950324065663,68.28765810020445,0,448,10,2,174
55.8668295256815,23.97609213637418,62.39632859531517,68.29086386346235,0,448,10,2,175
55.8668295256815,23.97609213637418,62.39950324065663,68.29086386346235,0,448,10,2,176
55.8668295256815,23.97609213637418,62.39950324065663,68.29086386346235,0,448,10,2,177
55.8668295256815,23.97609213637418,62.39950324065663,68.29086386346235,0,448,10,2,178
55.8668295256815,23.97609213637418,62.395934707820636,68.29009647262853,0,320,10,2,179
55.8668295256815,23.97609213637418,62.395934707820636,68.29009647262853,0,320,10,2,180
55.8668295256815,23.97609213637418,62.395934707820636,68.28689104585787,0,320,10,2,181
55.8668295256815,23.97609213637418,62.39609597386079,68.28713490440312,0,320,10,2,182
55.8668295256815,23.97609213637418,62.395934707820636,68.28689104585787,0,320,10,2,183
55.8668295256815,23.97609213637418,62.3927033590088,68.28636798872523,0,256,10,2,184
55.8668295256815,23.97609213637418,62.3927033590088,68.28636798872523,0,256,10,2,185
55.8668295256815,23.97609213637418,62.395702154934796,68.28713490440312,0,256,10,2,186
55.8668295256815,23.97609213637418,62.395702154934796,68.28957339046417,0,256,10,2,187
55.8668295256815,23.97609213637418,62.395702154934796,68.29009647262853,0,256,10,2,188
55.8668295256815,23.97609213637418,62.39950324065663,68.29086386346235,0,320,10,2,189
55.8668295256815,23.97609213637418,62.39950324065663,68.29086386346235,0,320,10,2,190
55.8668295256815,23.97609213637418,62.39950324065663,68.28765810020445,0,320,10,2,191
55.8668295256815,23.97609213637418,62.395934707820636,68.28689104585787,0,320,10,2,192
55.8668295256815,23.97609213637418,62.39950324065663,68.28765810020445,0,320,10,2,193
55.8668295256815,23.97609213637418,62.399270613173506,68.29354082243607,0,256,10,2,194
55.8668295256815,23.97609213637418,62.399270613173506,68.29354082243607,0,256,10,2,195
55.8668295256815,23.97609213637418,62.39910900432469,68.29009647262853,0,256,10,2,196
55.8668295256815,23.97609213637418,62.39910900432469,68.29009647262853,0,256,10,2,197
55.8668295256815,23.97609213637418,62.39910900432469,68.29009647262853,0,256,10,2,198
55.8668295256815,23.97609213637418,62.39950324065663,68.29009647262853,0,448,10,2,199
55.8668295256815,23.97609213637418,62.39950324065663,68.29086386346235,0,448,10,2,200
55.8668295256815,23.97609213637418,62.39950324065663,68.29086386346235,0,448,10,2,201
55.8668295256815,23.97609213637418,62.39950324065663,68.29086386346235,0,448,10,2,202
55.8668295256815,23.97609213637418,62.39910900432469,68.29009647262853,0,448,10,2,203
55.8668295256815,23.97609213637418,62.39910900432469,68.29009647262853,0,448,10,2,204
55.8668295256815,23.97609213637418,62.395934707820636,68.29009647262853,0,384,10,2,205
55.8668295256815,23.97609213637418,62.39632859531517,68.28765810020445,0,384,10,2,206
55.8668295256815,23.97609213637418,62.395934707820636,68.28689104585787,0,384,10,2,207
55.8668295256815,23.97609213637418,62.39632859531517,68.28765810020445,0,384,10,2,208
55.8668295256815,23.97609213637418,62.39950324065663,68.29086386346235,0,384,10,2,209
55.8668295256815,23.97609213637418,62.39950324065663,68.29086386346235,0,320,10,2,210
55.8668295256815,23.97609213637418,62.39632859531517,68.29406436829213,0,320,10,2,211
55.8668295256815,23.97609213637418,62.39632859531517,68.28765810020445,0,320,10,2,212
55.8668295256815,23.97609213637418,62.39950324065663,68.29086386346235,0,320,10,2,213
55.8668295256815,23.97609213637418,62.39950324065663,68.29009647262853,0,320,10,2,214
55.8668295256815,23.97609213637418,62.39934154527605,68.29061953136285,0,448,10,2,215
55.8668295256815,23.97609213637418,62.39910900432469,68.29009647262853,0,448,10,2,216
55.8668295256815,23.97609213637418,62.39910900432469,68.29009647262853,0,448,10,2,217
55.8668295256815,23.97609213637418,62.395934707820636,68.28689615374857,0,448,10,2,218
55.8668295256815,23.97609213637418,62.395934707820636,68.28689615374857,0,192,10,2,219
55.8668295256815,23.97609213637418,62.39627203001377,68.29086386346235,0,192,10,2,220
55.8668295256815,23.97609213637418,62.39950324065663,68.29138706092013,0,192,10,2,221
55.8668295256815,23.97609213637418,62.39627203001377,68.29086386346235,0,192,10,2,222
55.8668295256815,23.97609213637418,62.39587781990287,68.29009647262853,0,256,10,2,223
55.8668295256815,23.97609213637418,62.39587781990287,68.29009647262853,0,256,10,2,224
55.8668295256815,23.97609213637418,62.39587781990287,68.29009647262853,0,256,10,2,225
55.8668295256815,23.97609213637418,62.39587781990287,68.28689104585787,0,256,10,2,226
55.8668295256815,23.97609213637418,62.396110020031564,68.28689104585787,0,256,10,2,227
55.8668295256815,23.97609213637418,62.396110020031564,68.29061953136285,0,256,10,2,228
55.8668295256815,23.97609213637418,62.39632859531517,68.29061953136285,0,384,10,2,229
55.8668295256815,23.97609213637418,62.39910900432469,68.29086386346235,0,384,10,2,230
55.8668295256815,23.97609213637418,62.39910900432469,68.29009647262853,0,384,10,2,231
55.8668295256815,23.97609213637418,62.39910900432469,68.29009647262853,0,384,10,2,232
55.8668295256815,23.97609213637418,62.39910900432469,68.29009647262853,0,384,10,1,234
50.210765324198434,45.71300776334086,62.39910900432469,68.29009647262853,0,448,10,1,235
43.72586641400069,45.71567023971516,62.39910900432469,68.29009647262853,0,448,10,1,236
43.72586641400069,45.71378282635655,62.39910900432469,68.29009647262853,0,448,10,1,237
43.72661422128997,45.71567023971516,62.39910900432469,68.29009647262853,0,448,10,1,238
43.72661422128997,45.714601447332115,62.39910900432469,68.29009647262853,0,448,10,1,239
43.72506647463168,45.714601447332115,62.39910900432469,68.29009647262853,0,448,10,1,240
43.72506647463168,45.714601447332115,62.39910900432469,68.29009647262853,0,448,10,1,241
43.72506647463168,45.714601447332115,62.39910900432469,68.29009647262853,0,448,10,1,242
43.72506647463168,45.714601447332115,62.39910900432469,68.29009647262853,0,448,10,1,243
43.727362035519164,45.71700145857349,62.39910900432469,68.29009647262853,0,256,10,1,244
43.727362035519164,45.71700145857349,62.39910900432469,68.29009647262853,0,256,10,1,245
43.727362035519164,45.711509497713344,62.39910900432469,68.29009647262853,0,256,10,1,246
43.72506647463168,45.711509497713344,62.39910900432469,68.29009647262853,0,256,10,1,247
43.72506647463168,45.71204905576655,62.39910900432469,68.29009647262853,0,256,10,1,248
43.727362035519164,45.713935891031184,62.39910900432469,68.29009647262853,0,256,10,1,249
43.727362035519164,45.713935891031184,62.39910900432469,68.29009647262853,0,256,10,1,250
43.727362035519164,45.713935891031184,62.39910900432469,68.29009647262853,0,256,10,1,251
43.727362035519164,45.714601447332115,62.39910900432469,68.29009647262853,0,256,10,1,252
43.72506647463168,45.714601447332115,62.39910900432469,68.29009647262853,0,256,10,1,253
43.72506647463168,45.714601447332115,62.39910900432469,68.29009647262853,0,256,10,1,254
43.72661422128997,45.714601447332115,62.39910900432469,68.29009647262853,0,320,10,1,255
43.727362035519164,45.713935891031184,62.39910900432469,68.29009647262853,0,320,10,1,0
43.72661422128997,45.71324336911469,62.39910900432469,68.29009647262853,0,320,10,1,1
43.727362035519164,45.713935891031184,62.39910900432469,68.29009647262853,0,320,10,1,2
43.727362035519164,45.713935891031184,62.39910900432469,68.29009647262853,0,320,10,1,3
43.727362035519164,45.713935891031184,62.39910900432469,68.29009647262853,0,320,10,1,4
43.727362035519164,45.71700145857349,62.39910900432469,68.29009647262853,0,320,10,1,5
43.727362035519164,45.71700145857349,62.39910900432469,68.29009647262853,0,320,10,1,6
43.727362035519164,45.71700145857349,62.39910900432469,68.29009647262853,0,320,10,1,7
43.727362035519164,45.714601447332115,62.39910900432469,68.29009647262853,0,320,10,1,8
43.72506647463168,45.714601447332115,62.39910900432469,68.29009647262853,0,384,10,1,9
43.72506647463168,45.714601447332115,62.39910900432469,68.29009647262853,0,384,10,1,10
43.72506647463168,45.714601447332115,62.39910900432469,68.29009647262853,0,384,10,1,11
43.72506647463168,45.714601447332115,62.39910900432469,68.29009647262853,0,384,10,1,12
43.72506647463168,45.714601447332115,62.39910900432469,68.29009647262853,0,384,10,1,13
43.72506647463168,45.714601447332115,62.39910900432469,68.29009647262853,0,448,10,1,14
43.72506647463168,45.713935891031184,62.39910900432469,68.29009647262853,0,448,10,1,15
43.724318715493986,45.713935891031184,62.39910900432469,68.29009647262853,0,448,10,1,16
43.727362035519164,45.713935891031184,62.39910900432469,68.29009647262853,0,448,10,1,17
43.72506647463168,45.714601447332115,62.39910900432469,68.29009647262853,0,192,10,1,18
43.727362035519164,45.714601447332115,62.39910900432469,68.29009647262853,0,128,10,1,19
43.72506647463168,45.713935891031184,62.39910900432469,68.29009647262853,0,128,10,1,20
43.727362035519164,45.71390934662773,62.39910900432469,68.29009647262853,0,128,10,1,21
43.727362035519164,45.71390934662773,62.39910900432469,68.29009647262853,0,128,10,1,22
43.727362035519164,45.713935891031184,62.39910900432469,68.29009647262853,0,384,10,1,23
43.727362035519164,45.713935891031184,62.39910900432469,68.29009647262853,0,384,10,1,24
43.72668970618809,45.714448665008504,62.39910900432469,68.29009647262853,0,384,10,1,25
43.72668970618809,45.714601447332115,62.39910900432469,68.29009647262853,0,384,10,1,26
43.72668970618809,45.714601447332115,62.39910900432469,68.29009647262853,0,384,10,1,27
43.727362035519164,45.714601447332115,62.39910900432469,68.29009647262853,0,320,10,1,28
43.727362035519164,45.713935891031184,62.39910900432469,68.29009647262853,0,320,10,1,29
43.727362035519164,45.714601447332115,62.39910900432469,68.29009647262853,0,320,10,1,30
43.72506647463168,45.713935891031184,62.39910900432469,68.29009647262853,0,320,10,1,31
43.72506647463168,45.713935891031184,62.39910900432469,68.29009647262853,0,320,10,1,32
43.727362035519164,45.713935891031184,62.39910900432469,68.29009647262853,0,320,10,1,33
43.727362035519164,45.713935891031184,62.39910900432469,68.29009647262853,0,320,10,1,34
43.727362035519164,45.713935891031184,62.39910900432469,68.29009647262853,0,320,10,1,35
43.727362035519164,45.713935891031184,62.39910900432469,68.29009647262853,0,320,10,1,36
43.727362035519164,45.71204905576655,62.39910900432469,68.29009647262853,0,320,10,1,37
43.72573904122667,45.713935891031184,62.39910900432469,68.29009647262853,0,320,10,1,38
43.72506647463168,45.71204905576655,62.39910900432469,68.29009647262853,0,448,10,1,39
43.72506647463168,45.714601447332115,62.39910900432469,68.29009647262853,0,448,10,1,40
43.727362035519164,45.71700145857349,62.39910900432469,68.29009647262853,0,448,10,1,41
43.727362035519164,45.71700145857349,62.39910900432469,68.29009647262853,0,448,10,1,42
43.727362035519164,45.71700145857349,62.39910900432469,68.29009647262853,0,448,10,1,43
43.72668970618809,45.71700145857349,62.39910900432469,68.29009647262853,0,256,10,1,44
43.72668970618809,45.71700145857349,62.39910900432469,68.29009647262853,0,256,10,1,45
43.727362035519164,45.716462126630816,62.39910900432469,68.29009647262853,0,256,10,1,46
43.727362035519164,45.713935891031184,62.39910900432469,68.29009647262853,0,256,10,1,47
43.727362035519164,45.713935891031184,62.39910900432469,68.29009647262853,0,256,10,1,48
43.727362035519164,45.71390934662773,62.39910900432469,68.29009647262853,0,384,10,1,49
43.727362035519164,45.713935891031184,62.39910900432469,68.29009647262853,0,384,10,1,50
43.727362035519164,45.71204905576655,62.39910900432469,68.29009647262853,0,384,10,1,51
43.727362035519164,45.713935891031184,62.39910900432469,68.29009647262853,0,384,10,1,52
43.727362035519164,45.713935891031184,62.39910900432469,68.29009647262853,0,384,10,1,53
43.727362035519164,45.713935891031184,62.39910900432469,68.29009647262853,0,384,10,1,54
43.72676039173784,45.71339618051745,62.39910900432469,68.29009647262853,0,384,10,1,55
43.724920341513496,45.71339618051745,62.39910900432469,68.29009647262853,0,384,10,1,56
43.724920341513496,45.714448665008504,62.39910900432469,68.29009647262853,0,384,10,1,57
43.727362035519164,45.71700145857349,62.39910900432469,68.29009647262853,0,384,10,1,58
43.727362035519164,45.71700145857349,62.39910900432469,68.29009647262853,0,384,10,1,59
43.727362035519164,45.71700145857349,62.39910900432469,68.29009647262853,0,384,10,1,60
43.724920341513496,45.714448665008504,62.39910900432469,68.29009647262853,0,384,10,1,61
43.727362035519164,45.714601447332115,62.39910900432469,68.29009647262853,0,384,10,1,62
43.724920341513496,45.714448665008504,62.39910900432469,68.29009647262853,0,384,10,1,63
43.72803438106993,45.713935891031184,62.39910900432469,68.29009647262853,0,320,10,1,64
43.72506647463168,45.713935891031184,62.39910900432469,68.29009647262853,0,320,10,1,65
43.72803438106993,45.714601447332115,62.39910900432469,68.29009647262853,0,320,10,1,66
43.727362035519164,45.714601447332115,62.39910900432469,68.29009647262853,0,320,10,1,67
43.727362035519164,45.714601447332115,62.39910900432469,68.29009647262853,0,64,10,1,68
43.72506647463168,45.714601447332115,62.39910900432469,68.29009647262853,0,64,10,1,69
43.72506647463168,45.713935891031184,62.39910900432469,68.29009647262853,0,192,10,1,70
43.72506647463168,45.71153604072329,62.39910900432469,68.29009647262853,0,192,10,1,71
43.727362035519164,45.71390934662773,62.39910900432469,68.29009647262853,0,256,10,1,72
43.727362035519164,45.71390934662773,62.39910900432469,68.29009647262853,0,256,10,1,73
43.727362035519164,45.713935891031184,62.39910900432469,68.29009647262853,0,256,10,1,74
43.727362035519164,45.714601447332115,62.39910900432469,68.29009647262853,0,256,10,1,75
43.72506647463168,45.714601447332115,62.39910900432469,68.29009647262853,0,256,10,1,76
43.72506647463168,45.714601447332115,62.39910900432469,68.29009647262853,0,256,10,2,78
43.72506647463168,45.714601447332115,62.39910900432469,68.29009647262853,0,448,10,2,79
43.72506647463168,45.714601447332115,62.39702635232828,68.28689104585787,0,448,10,2,80
43.72506647463168,45.714601447332115,62.39632859531517,68.28765810020445,0,448,10,2,81
43.72506647463168,45.714601447332115,62.395934707820636,68.28765810020445,0,448,10,2,82
43.72506647463168,45.714601447332115,62.39587781990287,68.28765810020445,0,448,10,2,83
43.72506647463168,45.714601447332115,62.39309722026394,68.28765810020445,0,448,10,2,84
43.72506647463168,45.714601447332115,62.39587781990287,68.28689104585787,0,448,10,2,85
43.72506647463168,45.714601447332115,62.39910900432469,68.28689104585787,0,448,10,2,86
43.72506647463168,45.714601447332115,62.39950324065663,68.29085875527485,0,448,10,2,87
43.72506647463168,45.714601447332115,62.39950324065663,68.29085875527485,0,448,10,2,88
43.72506647463168,45.714601447332115,62.395934707820636,68.28689615374857,0,256,10,2,89
43.72506647463168,45.714601447332115,62.395934707820636,68.28689615374857,0,256,10,2,90
43.72506647463168,45.714601447332115,62.39632859531517,68.28765810020445,0,256,10,2,91
43.72506647463168,45.714601447332115,62.39910900432469,68.29009647262853,0,256,10,2,92
43.72506647463168,45.714601447332115,62.39910900432469,68.29009647262853,0,256,10,2,93
43.72506647463168,45.714601447332115,62.39950324065663,68.29086386346235,0,256,10,2,94
43.72506647463168,45.714601447332115,62.39910900432469,68.29009647262853,0,256,10,2,95
43.72506647463168,45.714601447332115,62.39910900432469,68.29009647262853,0,256,10,2,96
43.72506647463168,45.714601447332115,62.3927033590088,68.28689104585787,0,256,10,2,97
43.72506647463168,45.714601447332115,62.3927033590088,68.28689104585787,0,256,10,2,98
43.72506647463168,45.714601447332115,62.39609597386079,68.28765810020445,0,320,10,2,99
43.72506647463168,45.714601447332115,62.39609597386079,68.28765810020445,0,320,10,2,100
43.72506647463168,45.714601447332115,62.39609597386079,68.29033523447231,0,320,10,2,101
43.72506647463168,45.714601447332115,62.395934707820636,68.28689104585787,0,320,10,2,102
43.72506647463168,45.714601447332115,62.395934707820636,68.29009647262853,0,320,10,2,103
43.72506647463168,45.714601447332115,62.395934707820636,68.29009647262853,0,384,10,2,104
43.72506647463168,45.714601447332115,62.395934707820636,68.29009647262853,0,384,10,2,105
43.72506647463168,45.714601447332115,62.39950324065663,68.29086386346235,0,384,10,2,106
43.72506647463168,45.714601447332115,62.39632859531517,68.29086386346235,0,384,10,2,107
43.72506647463168,45.714601447332115,62.39632859531517,68.29086386346235,0,384,10,2,108
43.72506647463168,45.714601447332115,62.39632859531517,68.29086386346235,0,384,10,2,109
43.72506647463168,45.714601447332115,62.396110020031564,68.29061953136285,0,384,10,2,110
43.72506647463168,45.714601447332115,62.39632859531517,68.28765810020445,0,384,10,2,111
43.72506647463168,45.714601447332115,62.39632859531517,68.28765810020445,0,384,10,2,112
43.72506647463168,45.714601447332115,62.39950324065663,68.29085875527485,0,384,10,2,113
43.72506647463168,45.714601447332115,62.39934154527605,68.29085875527485,0,192,10,2,114
43.72506647463168,45.714601447332115,62.39950324065663,68.29061953136285,0,192,10,2,115
43.72506647463168,45.714601447332115,62.39934154527605,68.29009647262853,0,192,10,2,116
43.72506647463168,45.714601447332115,62.39910900432469,68.28765810020445,0,448,10,2,117
43.72506647463168,45.714601447332115,62.39632859531517,68.28765810020445,0,448,10,2,118
43.72506647463168,45.714601447332115,62.39632859531517,68.28765810020445,0,256,10,2,119
43.72506647463168,45.714601447332115,62.39910900432469,68.29009647262853,0,256,10,2,120
43.72506647463168,45.714601447332115,62.39910900432469,68.29009647262853,0,256,10,2,121
43.72506647463168,45.714601447332115,62.395934707820636,68.28689104585787,0,256,10,2,122
43.72506647463168,45.714601447332115,62.395934707820636,68.28689104585787,0,256,10,2,123
43.72506647463168,45.714601447332115,62.39950324065663,68.29086386346235,0,384,10,2,124
43.72506647463168,45.714601447332115,62.39950324065663,68.29086386346235,0,384,10,2,125
43.72506647463168,45.714601447332115,62.39950324065663,68.29086386346235,0,384,10,2,126
43.72506647463168,45.714601447332115,62.395934707820636,68.28689104585787,0,384,10,2,127
43.72506647463168,45.714601447332115,62.39910900432469,68.29009647262853,0,384,10,2,128
43.72506647463168,45.714601447332115,62.39910900432469,68.29009647262853,0,320,10,2,129
43.72506647463168,45.714601447332115,62.39910900432469,68.29009647262853,127,320,10,2,130
43.72506647463168,45.714601447332115,62.39587781990287,68.28689104585787,621,320,10,2,131
43.72506647463168,45.714601447332115,62.39587781990287,68.28369057674603,1298,320,10,2,132
43.72506647463168,45.714601447332115,62.39609597386079,68.28689104585787,2092,320,10,2,133
43.72506647463168,45.714601447332115,62.39627203001377,68.28713490440312,2946,320,10,2,134
43.72506647463168,45.714601447332115,62.39627203001377,68.29086386346235,3779,320,10,2,135
43.72506647463168,45.714601447332115,62.39910900432469,68.29086386346235,3999,320,10,2,136
43.72506647463168,45.714601447332115,62.39910900432469,68.29009647262853,3999,320,10,2,137
43.72506647463168,45.714601447332115,62.39910900432469,68.29009647262853,3999,320,10,2,138
43.72506647463168,45.714601447332115,62.39910900432469,68.29009647262853,3999,256,10,2,139
43.72506647463168,45.714601447332115,62.39950324065663,68.29086386346235,3999,256,10,2,140
43.72506647463168,45.714601447332115,62.39950324065663,68.29086386346235,3999,256,10,2,141
43.72506647463168,45.714601447332115,62.39950324065663,68.29086386346235,3999,256,10,2,142
43.72506647463168,45.714601447332115,62.39910900432469,68.29085875527485,3999,256,10,2,143
43.72506647463168,45.714601447332115,62.39910900432469,68.29009647262853,3999,256,10,2,144
43.72506647463168,45.714601447332115,62.39910900432469,68.29009647262853,3999,320,10,2,145
43.72506647463168,45.714601447332115,62.39910900432469,68.29009647262853,3999,320,10,2,146
43.72506647463168,45.714601447332115,62.39910900432469,68.29009647262853,3999,320,10,2,147
43.72506647463168,45.714601447332115,62.39910900432469,68.29009647262853,3999,320,10,2,148
43.72506647463168,45.714601447332115,62.39934154527605,68.29009647262853,3999,320,10,2,149
43.72506647463168,45.714601447332115,62.39934154527605,68.29009647262853,3999,256,10,2,150
43.72506647463168,45.714601447332115,62.39910900432469,68.28818127262264,3999,256,10,2,151
43.72506647463168,45.714601447332115,62.39910900432469,68.28689615374857,3999,256,10,2,152
43.72506647463168,45.714601447332115,62.3927033590088,68.28689104585787,3999,256,10,2,153
43.72506647463168,45.714601447332115,62.39910900432469,68.28689104585787,3999,256,10,2,154
43.72506647463168,45.714601447332115,62.39910900432469,68.28689104585787,3999,256,10,2,155
43.72506647463168,45.714601447332115,62.39950324065663,68.28765810020445,3999,256,10,2,156
43.72506647463168,45.714601447332115,62.39950324065663,68.28818127262264,3999,256,10,2,157
43.72506647463168,45.714601447332115,62.39950324065663,68.29009647262853,3999,256,10,2,158
43.72506647463168,45.714601447332115,62.39910900432469,68.29009647262853,3999,256,10,2,159
43.72506647463168,45.714601447332115,62.39950324065663,68.28765810020445,3999,320,10,2,160
43.72506647463168,45.714601447332115,62.39632859531517,68.28765810020445,3999,320,10,2,161
43.72506647463168,45.714601447332115,62.39950324065663,68.28765810020445,3999,320,10,2,162
43.72506647463168,45.714601447332115,62.39950324065663,68.28765810020445,3999,320,10,2,163
43.72506647463168,45.714601447332115,62.39950324065663,68.28765810020445,3999,128,10,2,164
43.72506647463168,45.714601447332115,62.395934707820636,68.28689104585787,3999,128,10,2,165
43.72506647463168,45.714601447332115,62.395934707820636,68.28689104585787,3999,128,10,2,166
43.72506647463168,45.714601447332115,62.39587781990287,68.28765810020445,3999,128,10,2,167
43.72506647463168,45.714601447332115,62.39632859531517,68.28957339046417,3999,384,10,2,168
43.72506647463168,45.714601447332115,62.39910900432469,68.29009647262853,3999,384,10,2,169
43.72506647463168,45.714601447332115,62.39910900432469,68.29009647262853,3999,384,10,2,170
43.72506647463168,45.714601447332115,62.39910900432469,68.29009647262853,3999,384,10,2,171
43.72506647463168,45.714601447332115,62.39910900432469,68.29009647262853,3999,384,10,2,172
43.72506647463168,45.714601447332115,62.39910900432469,68.29009647262853,3999,384,10,2,173
43.72506647463168,45.714601447332115,62.39950324065663,68.29009647262853,3999,256,10,2,174
43.72506647463168,45.714601447332115,62.39910900432469,68.29009647262853,3999,256,10,2,175
43.72506647463168,45.714601447332115,62.39910900432469,68.29009647262853,3999,256,10,2,176
43.72506647463168,45.711509497713344,62.39910900432469,68.29009647262853,3999,256,10,1,178
43.7281648171003,31.619649067608567,62.39910900432469,68.29009647262853,3999,256,10,1,179
43.7281648171003,25.397744618999138,62.39910900432469,68.29009647262853,3999,320,10,1,180
43.725570859243,25.39672918468943,62.39910900432469,68.29009647262853,3999,320,10,1,181
43.724905641607805,25.39672918468943,62.39910900432469,68.29009647262853,3999,320,10,1,182
43.724905641607805,25.395067368088917,62.39910900432469,68.29009647262853,3999,320,10,1,183
43.72330402019267,25.39239410263319,62.39910900432469,68.29009647262853,3999,320,10,1,184
43.72330402019267,25.39239410263319,62.39910900432469,68.29009647262853,3999,320,10,1,185
43.72404142390878,25.393794374058746,62.39910900432469,68.29009647262853,3999,320,10,1,186
43.72571515531458,25.394095988596703,62.39910900432469,68.29009647262853,3999,320,10,1,187
43.72571515531458,25.394095988596703,62.39910900432469,68.29009647262853,3999,320,10,1,188
43.72571515531458,25.39541255699686,62.39910900432469,68.29009647262853,3999,384,10,1,189
43.72330402019267,25.393750681338975,62.39910900432469,68.29009647262853,3999,384,10,1,190
43.72330402019267,25.39541255699686,62.39910900432469,68.29009647262853,3999,384,10,1,191
43.72330402019267,25.393750681338975,62.39910900432469,68.29009647262853,3999,384,10,1,192
43.72330402019267,25.39541255699686,62.39910900432469,68.29009647262853,3999,384,10,1,193
43.725643260525985,25.393750681338975,62.39910900432469,68.29009647262853,3999,384,10,1,194
43.72571515531458,25.39541255699686,62.39910900432469,68.29009647262853,3999,448,10,1,195
43.727982369421674,25.39681299487601,62.39910900432469,68.29009647262853,3999,448,10,1,196
43.72571515531458,25.39681299487601,62.39910900432469,68.29009647262853,3999,448,10,1,197
43.725643260525985,25.39681299487601,62.39910900432469,68.29009647262853,3999,448,10,1,198
43.725643260525985,25.39681299487601,62.39910900432469,68.29009647262853,3999,448,10,1,199
43.72571515531458,25.39681299487601,62.39910900432469,68.29009647262853,3999,448,10,1,200
43.72571515531458,25.39681299487601,62.39910900432469,68.29009647262853,3999,448,10,1,201
43.72571515531458,25.39541255699686,62.39910900432469,68.29009647262853,3999,448,10,1,202
43.727982369421674,25.39515103652453,62.39910900432469,68.29009647262853,3999,448,10,1,203
43.72404142390878,25.395067368088917,62.39910900432469,68.29009647262853,3999,448,10,1,204
43.72630831662636,25.395067368088917,62.39910900432469,68.29009647262853,3999,448,10,1,205
