BIOZ1,BIOZ2,BIOZ3,BIOZ4,ECG,PPG,EXC_FREQ_KHZ,MUX_CONFIG,PACKET_NUMBER
20.2996945500943,33.12784927111185,0,0,0,8481,100,1,183
20.287201635987067,33.03893194095985,0,0,0,8481,100,1,184
20.287201635987067,32.826190393664845,0,0,0,8481,100,1,185
20.287201635987067,32.826190393664845,0,0,0,8481,100,1,186
20.45294966341901,32.904065891376774,0,0,0,8481,100,1,187
20.45294966341901,33.104517914234975,0,0,0,8481,100,1,188
20.450051609983444,33.212064273126984,0,0,0,8481,100,1,189
20.450051609983444,33.212064273126984,0,0,0,8481,100,1,190
20.450051609983444,33.050988101250226,0,0,0,8481,100,1,191
20.49010238525292,33.050988101250226,0,0,0,8481,100,1,192
20.49010238525292,33.063283290075645,0,0,0,8481,100,1,193
20.085456901197915,33.063283290075645,0,0,0,8481,100,1,194
20.085456901197915,33.03893194095985,0,0,58,8481,100,1,195
20.312576011335054,33.03893194095985,0,0,675,8481,100,1,196
20.312576011335054,32.93817015503515,0,0,1607,8481,100,1,197
20.033297216717344,32.84922941553313,0,0,2701,8481,100,1,198
20.03283968388517,32.84922941553313,0,0,3876,8481,100,1,199
20.033297216717344,33.25345891773176,0,0,5123,8481,100,1,200
20.33950160004293,33.26616315426974,0,0,6380,8481,100,1,201
20.33950160004293,33.26616315426974,0,0,7637,8481,100,1,202
20.2996945500943,33.12784927111185,0,0,7990,8481,100,1,203
20.287201635987067,33.027115070968186,0,0,7990,8481,100,1,204
20.287201635987067,32.826190393664845,0,0,8006,8481,100,1,205
20.287201635987067,32.826190393664845,0,0,7990,8481,100,1,206
20.44133789380794,32.91519338738351,0,0,8006,8481,100,1,207
20.530324299230546,33.093210874859366,0,0,7990,8481,100,1,208
20.45248254630471,33.216012254036045,0,0,8006,8481,100,1,209
20.477332598974193,33.216012254036045,0,0,7990,8481,100,1,210
20.477332598974193,33.050988101250226,0,0,8006,8481,100,1,211
20.477332598974193,33.050988101250226,0,0,7990,8481,100,1,212
20.477332598974193,33.063283290075645,0,0,8006,8481,100,1,213
20.085456901197915,33.063283290075645,0,0,7990,8481,100,1,214
20.085456901197915,33.03893194095985,0,0,8006,8481,100,1,215
20.2996945500943,33.027115070968186,0,0,7990,8481,100,1,216
20.2996945500943,32.95001892337015,0,0,8006,8481,100,1,217
20.03283968388517,32.856454042140236,0,0,7990,8481,100,1,218
20.03045862537575,32.856454042140236,0,0,8006,8481,100,1,219
20.03045862537575,33.159936459575356,0,0,7990,8481,100,1,220
20.33950160004293,33.26616315426974,0,0,8006,8481,100,1,221
20.33950160004293,33.26616315426974,0,0,7990,8481,100,1,222
20.287201635987067,33.11530780452591,0,0,8006,8481,100,1,223
20.287201635987067,33.027115070968186,0,0,7990,8481,100,1,224
20.287201635987067,32.81503271697811,0,0,7317,8481,100,1,225
20.3885096612643,32.81503271697811,0,0,5782,8481,100,1,226
20.44133789380794,32.826190393664845,0,0,4226,8481,100,1,227
20.45294966341901,33.01553774821448,0,0,2754,8481,100,1,228
20.45248254630471,33.11530780452591,0,0,1373,8481,100,1,229
20.45248254630471,33.11530780452591,0,0,219,8481,100,1,230
20.45248254630471,33.03893194095985,0,0,0,8481,100,1,231
20.3885096612643,33.03893194095985,0,0,0,8481,100,1,232
20.3885096612643,33.063283290075645,0,0,0,8481,100,1,233
20.085456901197915,33.063283290075645,0,0,0,8481,100,1,234
20.085456901197915,32.95001892337015,0,0,0,8481,100,1,235
20.2996945500943,32.95001892337015,0,0,0,8481,100,1,236
20.2996945500943,32.93817015503515,0,0,0,8481,100,1,237
20.03283968388517,32.84382497560254,0,0,0,8481,100,1,238
20.03000128700009,32.84382497560254,0,0,0,8481,100,1,239
20.03000128700009,33.07113060704701,0,0,0,8481,100,1,240
20.220959807261526,33.261449549630605,0,0,0,8481,100,1,241
20.220959807261526,33.261449549630605,0,0,0,8481,100,1,242
20.28673830432873,33.12709267680104,0,0,0,8481,100,1,243
20.275097987247037,33.02636077728734,0,0,0,8481,100,1,244
20.28673830432873,32.826190393664845,0,0,0,8481,100,1,245
20.38562073856893,32.810383034664866,0,0,0,8481,100,1,246
20.437974832186292,32.810383034664866,0,0,260,8481,100,1,247
20.45294966341901,32.9987702886585,0,0,1029,8481,100,1,248
20.437974832186292,33.12239899192415,0,0,1975,8481,100,1,249
20.437974832186292,33.12239899192415,0,0,3039,8481,100,1,250
20.437974832186292,33.050988101250226,0,0,4161,8481,100,1,251
20.3885096612643,33.050988101250226,0,0,5341,8481,100,1,252
20.3885096612643,33.063283290075645,0,0,6525,8481,100,1,253
20.07357502949556,33.063283290075645,0,0,7698,8481,100,1,254
20.07357502949556,32.95001892337015,0,0,7990,8481,100,1,255
20.2996945500943,32.95001892337015,0,0,7990,8481,100,1,0
20.2996945500943,32.93817015503515,0,0,8006,8481,100,1,1
20.033297216717344,32.86111025334857,0,0,7990,8481,100,1,2
20.03283968388517,32.86111025334857,0,0,8006,8481,100,1,3
20.033297216717344,33.07113060704701,0,0,7990,8481,100,1,4
20.223363511006816,33.25269945467015,0,0,8006,8481,100,1,5
20.223363511006816,33.25269945467015,0,0,7990,8481,100,1,6
20.28673830432873,33.03817737739801,0,0,8006,8481,100,1,7
20.283863933260026,33.03817737739801,0,0,7990,8481,100,1,8
20.28673830432873,32.832186852037346,0,0,8006,8481,100,1,9
20.372718877500546,32.82544068882605,0,0,7990,8481,100,1,10
20.440871041890414,32.82544068882605,0,0,8006,8481,100,1,11
20.440871041890414,33.01478371894368,0,0,7990,8481,100,1,12
20.437974832186292,33.12239899192415,0,0,8006,8481,100,1,13
20.437974832186292,33.12239899192415,0,0,7990,8481,100,1,14
20.437974832186292,33.04555046746038,0,0,8006,8481,100,1,15
20.38515529107969,33.04555046746038,0,0,7990,8481,100,1,16
20.38515529107969,33.05784363344963,0,0,8006,8481,100,1,17
20.070730860933583,33.05784363344963,0,0,7990,8481,100,1,18
20.070730860933583,33.04555046746038,0,0,7990,8481,100,1,19
20.29923093311506,33.03893194095985,0,0,7989,8481,100,1,20
20.29923093311506,32.937417892733315,0,0,7006,8481,100,1,21
20.03283968388517,32.75490307861434,0,0,5478,8481,100,1,22
20.03000128700009,32.75490307861434,0,0,3943,8481,100,1,23
20.03000128700009,33.17267290327999,0,0,2490,8481,100,1,24
20.223825395239373,33.26616315426974,0,0,1129,8481,100,1,25
20.223825395239373,33.26616315426974,0,0,101,8481,100,1,26
20.28673830432873,33.13987308363014,0,0,0,8481,100,1,27
20.28673830432873,33.03817737739801,0,0,0,8481,100,1,28
20.287201635987067,32.826190393664845,0,0,0,8481,100,1,29
20.38515529107969,32.82544068882605,0,0,0,8481,100,1,30
20.437974832186292,32.82544068882605,0,0,0,8481,100,1,31
20.440871041890414,33.01010594680813,0,0,0,8481,100,1,32
20.437974832186292,33.1344208262538,0,0,0,8481,100,1,33
20.3756058399612,33.1344208262538,0,0,0,8481,100,1,34
20.3756058399612,33.04555046746038,0,0,0,8481,100,1,35
20.3756058399612,33.04555046746038,0,0,0,8481,100,1,36
20.296354792000805,33.05784363344963,0,0,0,8481,100,1,37
20.070730860933583,33.05784363344963,0,0,0,8481,100,1,38
20.070730860933583,33.03817737739801,0,0,0,8481,100,1,39
20.28673830432873,33.03817737739801,0,0,0,8481,100,1,40
20.28673830432873,32.937417892733315,0,0,0,8481,100,1,41
20.03000128700009,32.75490307861434,0,0,0,8481,100,1,42
19.944058956664925,32.75490307861434,0,0,0,8481,100,1,43
20.03000128700009,33.17267290327999,0,0,70,8481,100,1,44
20.220498119334877,33.25269945467015,0,0,707,8481,100,1,45
20.220498119334877,33.25269945467015,0,0,1652,8481,100,1,46
20.20802361390207,33.12315526467401,0,0,2738,8481,100,1,47
20.20802361390207,33.02168136483085,0,0,3922,8481,100,1,48
20.283863933260026,32.832186852037346,0,0,5140,8481,100,1,49
20.38804401587062,32.81428326696524,0,0,6406,8481,100,1,50
20.38804401587062,32.81428326696524,0,0,7621,8481,100,1,51
20.449584691399085,33.092455071641666,0,0,7990,8481,100,1,52
20.449584691399085,33.216012254036045,0,0,8006,8481,100,1,53
20.449584691399085,33.216012254036045,0,0,7990,8481,100,1,54
20.45248254630471,33.04555046746038,0,0,8006,8481,100,1,55
20.3756058399612,33.04555046746038,0,0,7990,8481,100,1,56
20.2996945500943,33.063283290075645,0,0,8006,8481,100,1,57
19.98502898744039,33.063283290075645,0,0,7990,8481,100,1,58
19.98502898744039,33.03893194095985,0,0,8006,8481,100,1,59
20.197878224138595,32.95001892337015,0,0,7990,8481,100,1,60
20.197878224138595,32.937417892733315,0,0,8006,8481,100,1,61
20.03283968388517,32.75954468664707,0,0,7990,8481,100,1,62
20.03000128700009,32.75954468664707,0,0,8006,8481,100,1,63
20.03283968388517,33.1766162016624,0,0,7990,8481,100,1,64
20.236690669125004,33.25269945467015,0,0,8006,8481,100,1,65
20.236690669125004,33.25269945467015,0,0,7990,8481,100,1,66
20.207562221336495,33.12239899192415,0,0,8006,8481,100,1,67
20.207562221336495,33.02636077728734,0,0,7990,8481,100,1,68
20.28673830432873,32.9144416498393,0,0,8006,8481,100,1,69
20.38515529107969,32.80963390317654,0,0,7990,8481,100,1,70
20.449584691399085,32.80963390317654,0,0,8006,8481,100,1,71
20.449584691399085,33.08776629446993,0,0,7990,8481,100,1,72
20.449584691399085,33.21130597039358,0,0,7990,8481,100,1,73
20.449584691399085,33.21130597039358,0,0,7519,8481,100,1,74
20.449584691399085,33.05023326234235,0,0,6000,8481,100,1,75
20.3885096612643,33.05023326234235,0,0,4469,8481,100,1,76
20.3885096612643,33.05023326234235,0,0,2970,8481,100,1,77
19.98502898744039,33.04555046746038,0,0,1576,8481,100,1,78
19.98502898744039,33.03893194095985,0,0,337,8481,100,1,79
20.197878224138595,32.94926639045882,0,0,0,8481,100,1,80
20.197878224138595,32.94926639045882,0,0,0,8481,100,1,81
20.03283968388517,32.84382497560254,0,0,0,8481,100,1,82
20.03000128700009,32.84382497560254,0,0,0,8481,100,1,83
20.03000128700009,33.15917934703185,0,0,0,8481,100,1,84
20.210425779897587,33.25269945467015,0,0,0,8481,100,1,85
20.296354792000805,33.25269945467015,0,0,0,8481,100,1,86
20.296354792000805,33.12239899192415,0,0,0,8481,100,1,87
20.28673830432873,33.02168136483085,0,0,0,8481,100,1,88
20.28673830432873,32.925809561157855,0,0,0,8481,100,1,89
20.38804401587062,32.81428326696524,0,0,0,8481,100,1,90
20.449584691399085,32.81428326696524,0,0,0,8481,100,1,91
20.449584691399085,33.08776629446993,0,0,0,8481,100,1,92
20.449584691399085,33.21130597039358,0,0,0,8481,100,1,93
20.449584691399085,33.21130597039358,0,0,0,8481,100,1,94
20.449584691399085,33.04555046746038,0,0,0,8481,100,1,95
20.38804401587062,33.04555046746038,0,0,356,8481,100,1,96
20.38804401587062,33.05023326234235,0,0,1200,8481,100,1,97
19.98457255698789,33.05023326234235,0,0,2244,8481,100,1,98
19.98457255698789,33.03817737739801,0,0,3393,8481,100,1,99
20.1950164434055,32.937417892733315,0,0,4621,8481,100,1,100
20.1950164434055,32.932751082344744,0,0,5868,8481,100,1,101
20.03283968388517,32.75490307861434,0,0,7162,8481,100,1,102
20.03000128700009,32.75490307861434,0,0,7974,8481,100,1,103
20.03000128700009,33.15917934703185,0,0,7990,8481,100,1,104
20.11877768406097,33.26069011932531,0,0,8006,8481,100,1,105
20.283863933260026,33.26069011932531,0,0,7990,8481,100,1,106
20.283863933260026,33.12239899192415,0,0,8006,8481,100,1,107
20.283863933260026,33.02168136483085,0,0,7990,8481,100,1,108
20.283863933260026,32.909778094890164,0,0,8006,8481,100,1,109
20.38515529107969,32.80963390317654,0,0,7990,8481,100,1,110
20.449584691399085,32.80963390317654,0,0,8006,8481,100,1,111
20.449584691399085,32.9987702886585,0,0,7990,8481,100,1,112
20.449117383622227,33.19879565654908,0,0,8006,8481,100,1,113
20.449117383622227,33.19879565654908,0,0,7990,8481,100,1,114
20.473963615410835,33.03817737739801,0,0,8006,8481,100,1,115
20.473963615410835,33.03817737739801,0,0,7990,8481,100,1,116
20.38515529107969,33.04555046746038,0,0,8006,8481,100,1,117
19.981740998936687,33.04555046746038,0,0,7990,8481,100,1,118
19.981740998936687,33.02636077728734,0,0,8006,8481,100,1,119
20.197878224138595,32.944597901289825,0,0,7990,8481,100,1,120
20.197878224138595,32.932751082344744,0,0,8006,8481,100,1,121
20.03000128700009,32.84382497560254,0,0,7990,8481,100,1,122
20.03000128700009,32.84382497560254,0,0,8006,8481,100,1,123
20.03000128700009,33.07037552213179,0,0,7990,8481,100,1,124
20.109025698225704,33.33680136143028,0,0,7596,8481,100,1,125
20.296354792000805,33.33680136143028,0,0,6111,8481,100,1,126
20.296354792000805,33.12239899192415,0,0,4522,8481,100,1,127
20.283863933260026,33.02168136483085,0,0,2987,8481,100,1,128
20.283863933260026,32.92114439552124,0,0,1522,8481,100,1,129
20.296354792000805,32.82078974417354,0,0,262,8481,100,1,130
20.437507789714456,32.82078974417354,0,0,0,8481,100,1,131
20.449584691399085,33.08701018275707,0,0,0,8481,100,1,132
20.449117383622227,33.19879565654908,0,0,0,8481,100,1,133
20.449584691399085,33.19879565654908,0,0,0,8481,100,1,134
20.461113597097473,33.03274141912958,0,0,0,8481,100,1,135
20.461113597097473,33.03274141912958,0,0,0,8481,100,1,136
20.372718877500546,33.04555046746038,0,0,0,8481,100,1,137
19.981740998936687,33.04555046746038,0,0,0,8481,100,1,138
19.981740998936687,32.943845061218155,0,0,0,8481,100,1,139
20.18240030034548,32.93199851299302,0,0,0,8481,100,1,140
20.18240030034548,32.93199851299302,0,0,0,8481,100,1,141
20.03000128700009,32.84382497560254,0,0,0,8481,100,1,142
20.029543567417363,32.84382497560254,0,0,0,8481,100,1,143
20.03000128700009,33.05708820552045,0,0,0,8481,100,1,144
20.109025698225704,33.33680136143028,0,0,0,8481,100,1,145
20.28340041248423,33.33680136143028,0,0,0,8481,100,1,146
20.28340041248423,33.12164208879528,0,0,0,8481,100,1,147
20.28340041248423,33.10985915555186,0,0,101,8481,100,1,148
20.28340041248423,32.82003973332874,0,0,818,8481,100,1,149
20.38468945562417,32.80888414726167,0,0,1832,8481,100,1,150
20.437507789714456,32.80888414726167,0,0,2983,8481,100,1,151
20.449117383622227,32.99801621065567,0,0,4227,8481,100,1,152
20.449117383622227,33.10985915555186,0,0,5502,8481,100,1,153
20.449117383622227,33.10985915555186,0,0,6824,8481,100,1,154
20.449117383622227,33.02092676327098,0,0,7887,8481,100,1,155
20.372253326238212,32.95593147712511,0,0,7990,8481,100,1,156
20.28340041248423,32.95593147712511,0,0,8006,8481,100,1,157
19.981740998936687,32.95593147712511,0,0,7990,8481,100,1,158
19.981740998936687,32.932751082344744,0,0,8006,8481,100,1,159
20.182861513044255,32.932751082344744,0,0,7990,8481,100,1,160
20.182861513044255,32.932751082344744,0,0,8006,8481,100,1,161
20.029543567417363,32.843074438363544,0,0,7990,8481,100,1,162
20.029543567417363,32.843074438363544,0,0,8006,8481,100,1,163
20.03000128700009,33.15917934703185,0,0,7990,8481,100,1,164
20.207100444184544,33.33603955884274,0,0,8006,8481,100,1,165
20.295890985787658,33.33603955884274,0,0,7990,8481,100,1,166
20.295890985787658,33.12164208879528,0,0,8006,8481,100,1,167
20.28340041248423,33.02092676327098,0,0,7990,8481,100,1,168
20.28340041248423,32.90902605051027,0,0,8006,8481,100,1,169
20.397512435728316,32.71987136652889,0,0,7990,8481,100,1,170
20.437507789714456,32.71987136652889,0,0,8006,8481,100,1,171
20.449117383622227,33.08701018275707,0,0,7990,8481,100,1,172
20.449117383622227,33.12164208879528,0,0,8006,8481,100,1,173
20.449117383622227,33.12164208879528,0,0,7990,8481,100,1,174
20.449117383622227,33.03274141912958,0,0,8006,8481,100,1,175
20.372253326238212,33.02092676327098,0,0,7990,8481,100,1,176
20.28340041248423,33.03274141912958,0,0,7971,8481,100,1,177
20.070730860933583,32.95593147712511,0,0,6991,8481,100,1,178
20.070730860933583,32.944597901289825,0,0,5402,8481,100,1,179
20.09350865546922,32.944597901289825,0,0,3848,8481,100,1,180
20.09350865546922,32.93199851299302,0,0,2347,8481,100,1,181
20.03238176969273,32.74712474668941,0,0,965,8481,100,1,182
20.03238176969273,32.74712474668941,0,0,41,8481,100,1,183
20.005081341568257,33.07037552213179,0,0,0,8481,100,1,184
20.005081341568257,33.33680136143028,0,0,0,8481,100,1,185
20.397978564217432,33.33680136143028,0,0,0,8481,100,1,186
20.397978564217432,33.12239899192415,0,0,0,8481,100,1,187
20.28340041248423,33.02092676327098,0,0,0,8481,100,1,188
20.28340041248423,32.9144416498393,0,0,0,8481,100,1,189
20.38804401587062,32.81428326696524,0,0,0,8481,100,1,190
20.38804401587062,32.81428326696524,0,0,0,8481,100,1,191
20.449584691399085,32.99801621065567,0,0,0,8481,100,1,192
20.437507789714456,33.12164208879528,0,0,0,8481,100,1,193
20.437507789714456,33.12164208879528,0,0,0,8481,100,1,194
20.437507789714456,33.03274141912958,0,0,0,8481,100,1,195
20.372253326238212,33.03274141912958,0,0,0,8481,100,1,196
20.1950164434055,33.05023326234235,0,0,0,8481,100,1,197
19.98457255698789,33.05023326234235,0,0,0,8481,100,1,198
19.98457255698789,32.944597901289825,0,0,0,8481,100,1,199
20.182861513044255,32.932751082344744,0,0,311,8481,100,1,200
20.182861513044255,32.932751082344744,0,0,1156,8481,100,1,201
20.029543567417363,32.754154573391865,0,0,2202,8481,100,1,202
20.029543567417363,32.754154573391865,0,0,3352,8481,100,1,203
20.029543567417363,33.06961980782764,0,0,4576,8481,100,1,204
20.106176506757873,33.33680136143028,0,0,5808,8481,100,1,205
20.296354792000805,33.33680136143028,0,0,7072,8481,100,1,206
20.296354792000805,33.12239899192415,0,0,7952,8481,100,1,207
20.20996380641076,33.02560585489176,0,0,7990,8481,100,1,208
20.20996380641076,32.92114439552124,0,0,8006,8481,100,1,209
20.397512435728316,32.81353319227489,0,0,7990,8481,100,1,210
20.397512435728316,32.81353319227489,0,0,8006,8481,100,1,211
20.449117383622227,32.99801621065567,0,0,7990,8481,100,1,212
20.437507789714456,33.19879565654908,0,0,8006,8481,100,1,213
20.437507789714456,33.19879565654908,0,0,7990,8481,100,1,214
20.437507789714456,33.03274141912958,0,0,8006,8481,100,1,215
20.372253326238212,33.03274141912958,0,0,7990,8481,100,1,216
20.296354792000805,33.04479532045095,0,0,8006,8481,100,1,217
19.98128438218359,33.04479532045095,0,0,7990,8481,100,1,218
19.98128438218359,32.944597901289825,0,0,8006,8481,100,1,219
20.09350865546922,32.936665003409914,0,0,7990,8481,100,1,220
20.09350865546922,32.93199851299302,0,0,8006,8481,100,1,221
20.045433817838838,32.75879586318087,0,0,7990,8481,100,1,222
20.03238176969273,32.75879586318087,0,0,8006,8481,100,1,223
20.007916207115795,33.15917934703185,0,0,7990,8481,100,1,224
20.007916207115795,33.329091970000405,0,0,8006,8481,100,1,225
20.30877003342233,33.329091970000405,0,0,7990,8481,100,1,226
20.30877003342233,33.12164208879528,0,0,8001,8481,100,1,227
20.283863933260026,33.03274141912958,0,0,7990,8481,100,1,228
20.283863933260026,33.01010594680813,0,0,7099,8481,100,1,229
20.38468945562417,32.81353319227489,0,0,5531,8481,100,1,230
20.38468945562417,32.81353319227489,0,0,3938,8481,100,1,231
20.437974832186292,32.99801621065567,0,0,2413,8481,100,1,232
20.360204756442343,33.12164208879528,0,0,974,8481,100,1,233
20.375140090759345,33.12164208879528,0,0,34,8481,100,1,234
20.375140090759345,33.0374221848965,0,0,0,8481,100,1,235
20.375140090759345,33.0374221848965,0,0,0,8481,100,1,236
20.1950164434055,33.04479532045095,0,0,0,8481,100,1,237
19.984115746093973,33.04479532045095,0,0,0,8481,100,1,238
19.984115746093973,32.936665003409914,0,0,0,8481,100,1,239
20.09350865546922,32.936665003409914,0,0,0,8481,100,1,240
20.09350865546922,32.93199851299302,0,0,0,8481,100,1,241
20.029543567417363,32.754154573391865,0,0,0,8481,100,1,242
19.95388570143287,32.754154573391865,0,0,0,8481,100,1,243
20.005081341568257,33.15842160340933,0,0,0,8481,100,1,244
20.005081341568257,33.24798797292109,0,0,0,8481,100,1,245
20.410721537436945,33.24798797292109,0,0,0,8481,100,1,246
20.410721537436945,33.210547035589094,0,0,0,8481,100,1,247
20.286274586476722,33.02092676327098,0,0,0,8481,100,1,248
20.286274586476722,32.91368928571092,0,0,0,8481,100,1,249
20.397512435728316,32.80888414726167,0,0,0,8481,100,1,250
20.397512435728316,32.80888414726167,0,0,1,8481,100,1,251
20.449117383622227,32.99801621065567,0,0,456,8481,100,1,252
20.449117383622227,33.12164208879528,0,0,1393,8481,100,1,253
20.449117383622227,33.12164208879528,0,0,2521,8481,100,1,254
20.449117383622227,33.03274141912958,0,0,3740,8481,100,1,255
20.372253326238212,33.03274141912958,0,0,5026,8481,100,1,0
20.295890985787658,33.04479532045095,0,0,6318,8481,100,1,1
19.98128438218359,33.04479532045095,0,0,7613,8481,100,1,2
19.98128438218359,32.943845061218155,0,0,7990,8481,100,1,3
20.09350865546922,32.93199851299302,0,0,7990,8481,100,1,4
20.09350865546922,32.93199851299302,0,0,8006,8481,100,1,5
20.042593766339884,32.742485110472586,0,0,7990,8481,100,1,6
20.029543567417363,32.742485110472586,0,0,8006,8481,100,1,7
20.00462419144865,33.15842160340933,0,0,7990,8481,100,1,8
20.00462419144865,33.24722819987048,0,0,8006,8481,100,1,9
20.410721537436945,33.24722819987048,0,0,7990,8481,100,1,10
20.410721537436945,33.210547035589094,0,0,8006,8481,100,1,11
20.207100444184544,32.92039209140205,0,0,7990,8481,100,1,12
20.207100444184544,32.90902605051027,0,0,8006,8481,100,1,13
20.397512435728316,32.80888414726167,0,0,7990,8481,100,1,14
20.397512435728316,32.80888414726167,0,0,8006,8481,100,1,15
20.449117383622227,32.99801621065567,0,0,7990,8481,100,1,16
20.449117383622227,33.19879565654908,0,0,8006,8481,100,1,17
20.449117383622227,33.19879565654908,0,0,7990,8481,100,1,18
20.449117383622227,33.03274141912958,0,0,8006,8481,100,1,19
20.38468945562417,33.03274141912958,0,0,7990,8481,100,1,20
20.1945549529459,33.04479532045095,0,0,8006,8481,100,1,21
19.98128438218359,33.04479532045095,0,0,7990,8481,100,1,22
19.98128438218359,32.93199851299302,0,0,8006,8481,100,1,23
20.09350865546922,32.93199851299302,0,0,7990,8481,100,1,24
20.09350865546922,32.93199851299302,0,0,7699,8481,100,1,25
20.042593766339884,32.754154573391865,0,0,6267,8481,100,1,26
20.029543567417363,32.754154573391865,0,0,4669,8481,100,1,27
20.00462419144865,33.15842160340933,0,0,3121,8481,100,1,28
20.029543567417363,33.23476356719806,0,0,1642,8481,100,1,29
20.42431601159603,33.23476356719806,0,0,338,8481,100,1,30
20.42431601159603,33.19879565654908,0,0,0,8481,100,1,31
20.207100444184544,33.02092676327098,0,0,0,8481,100,1,32
20.207100444184544,32.90902605051027,0,0,0,8481,100,1,33
20.397512435728316,32.80888414726167,0,0,0,8481,100,1,34
20.437040358353993,32.80888414726167,0,0,0,8481,100,1,35
20.449117383622227,32.98616636097243,0,0,0,8481,100,1,36
20.448649686735838,33.10985915555186,0,0,0,8481,100,1,37
20.448649686735838,33.10985915555186,0,0,0,8481,100,1,38
20.448649686735838,33.00935160976625,0,0,0,8481,100,1,39
20.372253326238212,33.00935160976625,0,0,0,8481,100,1,40
20.28340041248423,33.03198591902555,0,0,0,8481,100,1,41
19.98128438218359,33.03198591902555,0,0,0,8481,100,1,42
19.98128438218359,32.93199851299302,0,0,0,8481,100,1,43
20.09350865546922,32.93199851299302,0,0,0,8481,100,1,44
20.09350865546922,32.93199851299302,0,0,0,8481,100,1,45
20.045433817838838,32.742485110472586,0,0,0,8481,100,1,46
20.029543567417363,32.742485110472586,0,0,0,8481,100,1,47
20.00462419144865,33.05708820552045,0,0,17,8481,100,1,48
20.029543567417363,33.23476356719806,0,0,556,8481,100,1,49
20.5129507527913,33.23476356719806,0,0,1513,8481,100,1,50
20.5129507527913,33.10985915555186,0,0,2635,8481,100,1,51
20.295890985787658,33.008596644616404,0,0,3864,8481,100,1,52
20.295890985787658,32.90902605051027,0,0,5122,8481,100,1,53
20.397512435728316,32.79797006872903,0,0,6415,8481,100,1,54
20.397512435728316,32.79797006872903,0,0,7637,8481,100,1,55
20.449117383622227,32.98073839413026,0,0,7990,8481,100,1,56
20.449117383622227,33.109101891668764,0,0,8006,8481,100,1,57
20.473495750534113,33.109101891668764,0,0,7990,8481,100,1,58
20.537567092921318,33.02092676327098,0,0,8006,8481,100,1,59
20.473495750534113,32.943845061218155,0,0,7990,8481,100,1,60
20.1945549529459,32.943845061218155,0,0,8006,8481,100,1,61
19.98128438218359,32.943845061218155,0,0,7990,8481,100,1,62
19.98128438218359,32.92505693717976,0,0,8006,8481,100,1,63
20.096355921648506,32.92505693717976,0,0,7990,8481,100,1,64
20.096355921648506,32.83608882146026,0,0,8006,8481,100,1,65
20.042593766339884,32.754154573391865,0,0,7990,8481,100,1,66
20.029543567417363,32.754154573391865,0,0,8006,8481,100,1,67
20.016886793536575,33.05708820552045,0,0,7990,8481,100,1,68
20.029543567417363,33.23476356719806,0,0,8006,8481,100,1,69
20.5129507527913,33.23476356719806,0,0,7990,8481,100,1,70
20.5129507527913,33.10985915555186,0,0,8006,8481,100,1,71
20.28340041248423,33.00935160976625,0,0,7990,8481,100,1,72
20.28340041248423,32.92039209140205,0,0,8006,8481,100,1,73
20.486263144131353,32.70892758686844,0,0,7990,8481,100,1,74
20.486263144131353,32.70892758686844,0,0,8006,8481,100,1,75
20.449117383622227,32.89790063946824,0,0,7990,8481,100,1,76
20.437507789714456,33.109101891668764,0,0,7767,8481,100,1,77
20.437040358353993,33.109101891668764,0,0,6382,8481,100,1,78
20.437040358353993,32.93124531700524,0,0,4784,8481,100,1,79
20.371787387328936,32.93124531700524,0,0,3236,8481,100,1,80
20.282936505752204,32.943091594285,0,0,1752,8481,100,1,81
19.980827385222973,32.943091594285,0,0,411,8481,100,1,82
19.980827385222973,32.93199851299302,0,0,0,8481,100,1,83
20.09350865546922,32.93199851299302,0,0,0,8481,100,1,84
20.09350865546922,32.843074438363544,0,0,0,8481,100,1,85
20.029085466708832,32.65279088635011,0,0,0,8481,100,1,86
20.029085466708832,32.65279088635011,0,0,0,8481,100,1,87
19.940777447792527,32.9682574969019,0,0,0,8481,100,1,88
19.940777447792527,33.133663648405566,0,0,0,8481,100,1,89
20.410254718711567,33.133663648405566,0,0,0,8481,100,1,90
20.410254718711567,33.109101891668764,0,0,0,8481,100,1,91
20.1945549529459,32.92039209140205,0,0,0,8481,100,1,92
20.1945549529459,32.91963916086764,0,0,0,8481,100,1,93
20.486263144131353,32.71987136652889,0,0,0,8481,100,1,94
20.486263144131353,32.71987136652889,0,0,0,8481,100,1,95
20.449117383622227,32.89714822334146,0,0,0,8481,100,1,96
20.449117383622227,33.10985915555186,0,0,0,8481,100,1,97
20.449117383622227,33.10985915555186,0,0,0,8481,100,1,98
20.449117383622227,32.943845061218155,0,0,0,8481,100,1,99
20.372253326238212,32.943845061218155,0,0,20,8481,100,1,100
20.28340041248423,32.943845061218155,0,0,575,8481,100,1,101
19.980827385222973,32.943091594285,0,0,1554,8481,100,1,102
19.980827385222973,32.831436580749255,0,0,2707,8481,100,1,103
20.081693478710772,32.831436580749255,0,0,3974,8481,100,1,104
20.081693478710772,32.831436580749255,0,0,5278,8481,100,1,105
20.029085466708832,32.742485110472586,0,0,6626,8481,100,1,106
19.940777447792527,32.742485110472586,0,0,7806,8481,100,1,107
19.940777447792527,32.9682574969019,0,0,7990,8481,100,1,108
19.940777447792527,33.133663648405566,0,0,8006,8481,100,1,109
20.5129507527913,33.133663648405566,0,0,7990,8481,100,1,110
20.5129507527913,33.03274141912958,0,0,8006,8481,100,1,111
20.1945549529459,32.92039209140205,0,0,7990,8481,100,1,112
20.1945549529459,32.91963916086764,0,0,8006,8481,100,1,113
20.397512435728316,32.70892758686844,0,0,7990,8481,100,1,114
20.397512435728316,32.70892758686844,0,0,8006,8481,100,1,115
20.359739093098923,32.89714822334146,0,0,7990,8481,100,1,116
20.359739093098923,33.02017153338291,0,0,8006,8481,100,1,117
20.372253326238212,33.02017153338291,0,0,7990,8481,100,1,118
20.437040358353993,32.943091594285,0,0,8006,8481,100,1,119
20.372253326238212,32.943091594285,0,0,7990,8481,100,1,120
20.194093078220636,32.943091594285,0,0,8006,8481,100,1,121
19.980827385222973,32.943091594285,0,0,7990,8481,100,1,122
19.980827385222973,32.83068568473862,0,0,8006,8481,100,1,123
19.992299227110067,32.83068568473862,0,0,7990,8481,100,1,124
20.042135367156988,32.83068568473862,0,0,8006,8481,100,1,125
20.042135367156988,32.65279088635011,0,0,7990,8481,100,1,126
20.029085466708832,32.65279088635011,0,0,8006,8481,100,1,127
19.940777447792527,32.9682574969019,0,0,7990,8481,100,1,128
19.940777447792527,33.133663648405566,0,0,7990,8481,100,1,129
20.52686946903574,33.133663648405566,0,0,7858,8481,100,1,130
20.52686946903574,33.12164208879528,0,0,6481,8481,100,1,131
20.206638282528207,32.91963916086764,0,0,4833,8481,100,1,132
20.206638282528207,32.91963916086764,0,0,3195,8481,100,1,133
20.397045919111623,32.70817949279169,0,0,1655,8481,100,1,134
20.397045919111623,32.70817949279169,0,0,301,8481,100,1,135
20.448649686735838,32.89714822334146,0,0,0,8481,100,1,136
20.448649686735838,33.09755810367065,0,0,0,8481,100,1,137
20.448649686735838,33.09755810367065,0,0,0,8481,100,1,138
20.448649686735838,32.93124531700524,0,0,0,8481,100,1,139
20.371787387328936,32.93124531700524,0,0,0,8481,100,1,140
20.181938703612314,32.943091594285,0,0,0,8481,100,1,141
19.980827385222973,32.943091594285,0,0,0,8481,100,1,142
19.980827385222973,32.842323276180544,0,0,0,8481,100,1,143
19.992299227110067,32.842323276180544,0,0,0,8481,100,1,144
20.042135367156988,32.83068568473862,0,0,0,8481,100,1,145
20.042135367156988,32.741736248893304,0,0,0,8481,100,1,146
19.940321377276156,32.741736248893304,0,0,0,8481,100,1,147
19.940321377276156,33.056332148574974,0,0,0,8481,100,1,148
19.940321377276156,33.13290584008395,0,0,0,8481,100,1,149
20.540700625957758,33.13290584008395,0,0,0,8481,100,1,150
20.540700625957758,33.12088455542176,0,0,0,8481,100,1,151
20.206638282528207,32.91963916086764,0,0,0,8481,100,1,152
20.206638282528207,32.91963916086764,0,0,228,8481,100,1,153
20.482892688718316,32.70817949279169,0,0,1091,8481,100,1,154
20.482892688718316,32.70817949279169,0,0,2185,8481,100,1,155
20.448649686735838,32.89714822334146,0,0,3420,8481,100,1,156
20.448649686735838,33.109101891668764,0,0,4716,8481,100,1,157
20.448649686735838,33.109101891668764,0,0,6065,8481,100,1,158
20.448649686735838,32.93124531700524,0,0,7404,8481,100,1,159
20.371787387328936,32.93124531700524,0,0,7990,8481,100,1,160
20.093049091799138,32.943091594285,0,0,8006,8481,100,1,161
19.89184795322963,32.943091594285,0,0,7990,8481,100,1,162
19.89184795322963,32.831436580749255,0,0,8006,8481,100,1,163
19.992299227110067,32.83068568473862,0,0,7990,8481,100,1,164
20.042135367156988,32.83068568473862,0,0,8006,8481,100,1,165
20.042135367156988,32.65279088635011,0,0,7990,8481,100,1,166
20.029085466708832,32.65279088635011,0,0,8006,8481,100,1,167
19.95388570143287,33.05708820552045,0,0,7990,8481,100,1,168
19.95388570143287,33.13290584008395,0,0,8006,8481,100,1,169
20.64431254527734,33.210547035589094,0,0,7990,8481,100,1,170
20.64431254527734,33.210547035589094,0,0,8006,8481,100,1,171
20.206638282528207,32.93124531700524,0,0,7990,8481,100,1,172
20.206638282528207,32.90827337993142,0,0,8006,8481,100,1,173
20.4989462108292,32.70817949279169,0,0,7990,8481,100,1,174
20.4989462108292,32.70817949279169,0,0,8006,8481,100,1,175
20.448649686735838,32.89714822334146,0,0,7990,8481,100,1,176
20.448649686735838,33.09755810367065,0,0,8006,8481,100,1,177
20.448649686735838,33.09755810367065,0,0,7990,8481,100,1,178
20.448649686735838,32.93124531700524,0,0,8006,8481,100,1,179
20.384223232285066,32.93124531700524,0,0,7990,8481,100,1,180
20.194093078220636,32.943091594285,0,0,8006,8481,100,1,181
19.89184795322963,32.943091594285,0,0,7990,8481,100,1,182
19.89184795322963,32.83068568473862,0,0,7640,8481,100,1,183
19.992299227110067,32.83068568473862,0,0,6174,8481,100,1,184
20.042135367156988,32.83068568473862,0,0,4593,8481,100,1,185
20.042135367156988,32.65279088635011,0,0,3084,8481,100,1,186
20.029543567417363,32.65279088635011,0,0,1660,8481,100,1,187
19.940321377276156,33.05708820552045,0,0,391,8481,100,1,188
20.029543567417363,33.133663648405566,0,0,0,8481,100,1,189
20.643840384033513,33.133663648405566,0,0,0,8481,100,1,190
20.643840384033513,33.12088455542176,0,0,0,8481,100,1,191
20.206638282528207,32.91963916086764,0,0,0,8481,100,1,192
20.206638282528207,32.83068568473862,0,0,0,8481,100,1,193
20.4989462108292,32.70817949279169,0,0,0,8481,100,1,194
20.4989462108292,32.70817949279169,0,0,0,8481,100,1,195
20.448649686735838,32.89714822334146,0,0,0,8481,100,1,196
20.448649686735838,33.008596644616404,0,0,0,8481,100,1,197
20.448649686735838,33.008596644616404,0,0,0,8481,100,1,198
20.448649686735838,32.93124531700524,0,0,0,8481,100,1,199
20.384223232285066,32.93124531700524,0,0,0,8481,100,1,200
20.194093078220636,32.943091594285,0,0,0,8481,100,1,201
19.89184795322963,32.943091594285,0,0,0,8481,100,1,202
19.89184795322963,32.83068568473862,0,0,0,8481,100,1,203
19.992299227110067,32.83068568473862,0,0,0,8481,100,1,204
20.042135367156988,32.83068568473862,0,0,45,8481,100,1,205
20.042135367156988,32.65279088635011,0,0,644,8481,100,1,206
20.029085466708832,32.65279088635011,0,0,1584,8481,100,1,207
19.940321377276156,33.056332148574974,0,0,2697,8481,100,1,208
20.029085466708832,33.13290584008395,0,0,3898,8481,100,1,209
20.7472429355066,33.19803635857699,0,0,5168,8481,100,1,210
20.7472429355066,33.19803635857699,0,0,6447,8481,100,1,211
20.194093078220636,32.91963916086764,0,0,7701,8481,100,1,212
20.194093078220636,32.91963916086764,0,0,7990,8481,100,1,213
20.512481595955936,32.70817949279169,0,0,7990,8481,100,1,214
20.512481595955936,32.70817949279169,0,0,8006,8481,100,1,215
20.448649686735838,32.88626393530155,0,0,7990,8481,100,1,216
20.448181600822938,33.007841051492626,0,0,8006,8481,100,1,217
20.448181600822938,33.007841051492626,0,0,7990,8481,100,1,218
20.448181600822938,32.93124531700524,0,0,8006,8481,100,1,219
20.384223232285066,32.93124531700524,0,0,7990,8481,100,1,220
20.181938703612314,32.93124531700524,0,0,8006,8481,100,1,221
19.880722814319363,32.93124531700524,0,0,7990,8481,100,1,222
19.880722814319363,32.83068568473862,0,0,8006,8481,100,1,223
19.992299227110067,32.83068568473862,0,0,7990,8481,100,1,224
20.130389346992743,32.83068568473862,0,0,8006,8481,100,1,225
20.130389346992743,32.65279088635011,0,0,7990,8481,100,1,226
20.029085466708832,32.65279088635011,0,0,8006,8481,100,1,227
19.940321377276156,33.04403954465912,0,0,7990,8481,100,1,228
20.029085466708832,33.13290584008395,0,0,8006,8481,100,1,229
20.732308696825786,33.13290584008395,0,0,7990,8481,100,1,230
20.732308696825786,33.12088455542176,0,0,8006,8481,100,1,231
20.194093078220636,32.91963916086764,0,0,7990,8481,100,1,232
20.194093078220636,32.829934164138706,0,0,8006,8481,100,1,233
20.512012048879686,32.70743077645629,0,0,7990,8481,100,1,234
20.512012048879686,32.70743077645629,0,0,7932,8481,100,1,235
20.448649686735838,32.885511142471124,0,0,6811,8481,100,1,236
20.448649686735838,33.09680047414807,0,0,5228,8481,100,1,237
20.448649686735838,33.09680047414807,0,0,3679,8481,100,1,238
20.537096971618023,32.93124531700524,0,0,2183,8481,100,1,239
20.384223232285066,32.93124531700524,0,0,804,8481,100,1,240
20.181938703612314,32.93124531700524,0,0,10,8481,100,1,241
19.969751816772007,32.93124531700524,0,0,0,8481,100,1,242
19.969751816772007,32.83068568473862,0,0,0,8481,100,1,243
19.992299227110067,32.83068568473862,0,0,0,8481,100,1,244
20.130389346992743,32.83068568473862,0,0,0,8481,100,1,245
20.130389346992743,32.65279088635011,0,0,0,8481,100,1,246
20.029085466708832,32.65279088635011,0,0,0,8481,100,1,247
19.940321377276156,32.95517773376051,0,0,0,8481,100,1,248
20.029085466708832,33.12088455542176,0,0,0,8481,100,1,249
20.71775201100857,33.12088455542176,0,0,0,8481,100,1,250
20.71775201100857,33.109101891668764,0,0,0,8481,100,1,251
20.282936505752204,32.91963916086764,0,0,0,8481,100,1,252
20.282936505752204,32.91888560405167,0,0,0,8481,100,1,253
20.49847697358872,32.70743077645629,0,0,0,8481,100,1,254
20.49847697358872,32.70743077645629,0,0,0,8481,100,1,255
20.445753039530157,32.796469183597104,0,0,0,8481,100,1,0
20.445753039530157,33.007841051492626,0,0,0,8481,100,1,1
20.445753039530157,33.007841051492626,0,0,347,8481,100,1,2
20.537096971618023,32.93049149451508,0,0,1169,8481,100,1,3
20.371321060855422,32.93049149451508,0,0,2177,8481,100,1,4
20.17861805287652,32.93049149451508,0,0,3289,8481,100,1,5
19.880267728705874,32.93049149451508,0,0,4487,8481,100,1,6
19.880267728705874,32.83068568473862,0,0,5711,8481,100,1,7
19.992299227110067,32.83068568473862,0,0,6986,8481,100,1,8
20.130389346992743,32.83068568473862,0,0,7934,8481,100,1,9
20.130389346992743,32.741736248893304,0,0,7990,8481,100,1,10
20.029085466708832,32.741736248893304,0,0,8006,8481,100,1,11
19.940321377276156,32.95517773376051,0,0,7990,8481,100,1,12
20.029085466708832,33.12012639193807,0,0,8006,8481,100,1,13
20.717277765128674,33.12012639193807,0,0,7990,8481,100,1,14
20.717277765128674,33.10834399789965,0,0,8006,8481,100,1,15
20.193630819311686,32.91888560405167,0,0,7990,8481,100,1,16
20.193630819311686,32.91888560405167,0,0,8006,8481,100,1,17
20.512012048879686,32.70743077645629,0,0,7990,8481,100,1,18
20.512012048879686,32.70743077645629,0,0,8006,8481,100,1,19
20.448181600822938,32.796469183597104,0,0,7990,8481,100,1,20
20.433677734272127,33.01473853417957,0,0,8006,8481,100,1,21
20.448181600822938,33.01473853417957,0,0,7990,8481,100,1,22
20.460177265333165,32.93049149451508,0,0,8006,8481,100,1,23
20.460177265333165,32.93049149451508,0,0,7990,8481,100,1,24
20.181476722926703,32.93049149451508,0,0,8006,8481,100,1,25
19.880722814319363,32.93049149451508,0,0,7990,8481,100,1,26
19.880722814319363,32.83068568473862,0,0,8006,8481,100,1,27
19.980370008135957,32.83068568473862,0,0,7990,8481,100,1,28
20.130389346992743,32.829934164138706,0,0,8006,8481,100,1,29
20.130389346992743,32.64058500226507,0,0,7990,8481,100,1,30
19.939864927403992,32.64058500226507,0,0,7928,8481,100,1,31
19.939864927403992,32.95442336343823,0,0,6854,8481,100,1,32
19.939864927403992,33.11543498532423,0,0,5372,8481,100,1,33
20.643367830049755,33.13214740142346,0,0,3943,8481,100,1,34
20.643367830049755,33.13214740142346,0,0,2574,8481,100,1,35
20.193630819311686,32.91888560405167,0,0,1327,8481,100,1,36
20.193630819311686,32.907520083287245,0,0,255,8481,100,1,37
20.512012048879686,32.70743077645629,0,0,0,8481,100,1,38
20.512012048879686,32.70743077645629,0,0,0,8481,100,1,39
20.445285152504233,32.796469183597104,0,0,0,8481,100,1,40
20.445285152504233,33.01941567530068,0,0,0,8481,100,1,41
20.445285152504233,33.01941567530068,0,0,0,8481,100,1,42
20.448181600822938,32.92582694934499,0,0,0,8481,100,1,43
20.371321060855422,32.91888560405167,0,0,0,8481,100,1,44
20.092589145867688,32.92582694934499,0,0,0,8481,100,1,45
19.969294693213595,32.85344955730018,0,0,0,8481,100,1,46
19.969294693213595,32.829934164138706,0,0,0,8481,100,1,47
19.991841587423437,32.829934164138706,0,0,0,8481,100,1,48
20.041676586681326,32.829934164138706,0,0,0,8481,100,1,49
20.041676586681326,32.72955946735369,0,0,0,8481,100,1,50
19.939864927403992,32.72955946735369,0,0,0,8481,100,1,51
19.939864927403992,32.96674881915755,0,0,332,8481,100,1,52
19.939864927403992,33.11543498532423,0,0,1106,8481,100,1,53
20.64044373395109,33.20432327104181,0,0,2064,8481,100,1,54
20.64044373395109,33.20432327104181,0,0,3117,8481,100,1,55
20.20331356782827,32.914222702835175,0,0,4250,8481,100,1,56
20.20331356782827,32.914222702835175,0,0,5410,8481,100,1,57
20.4955734010205,32.71373955619814,0,0,6619,8481,100,1,58
20.4955734010205,32.71373955619814,0,0,7740,8481,100,1,59
20.448181600822938,32.796469183597104,0,0,7990,8481,100,1,60
20.445285152504233,33.09680047414807,0,0,8006,8481,100,1,61
20.445285152504233,33.09680047414807,0,0,7990,8481,100,1,62
20.445285152504233,32.92582694934499,0,0,8006,8481,100,1,63
20.380869298509463,32.92582694934499,0,0,7990,8481,100,1,64
20.08974306658367,32.92582694934499,0,0,8006,8481,100,1,65
19.87745172437051,32.92582694934499,0,0,7990,8481,100,1,66
19.87745172437051,32.829934164138706,0,0,8006,8481,100,1,67
19.90291547681517,32.829934164138706,0,0,7990,8481,100,1,68
20.041676586681326,32.829934164138706,0,0,8006,8481,100,1,69
20.041676586681326,32.652043437904126,0,0,7990,8481,100,1,70
19.939864927403992,32.652043437904126,0,0,8006,8481,100,1,71
19.939864927403992,33.0555754627474,0,0,7990,8481,100,1,72
19.939864927403992,33.13214740142346,0,0,8006,8481,100,1,73
20.73183411773173,33.209027270305924,0,0,7990,8481,100,1,74
20.73183411773173,33.209027270305924,0,0,8006,8481,100,1,75
20.206175736449513,33.007841051492626,0,0,7990,8481,100,1,76
20.206175736449513,32.91888560405167,0,0,8006,8481,100,1,77
20.49847697358872,32.718374055312694,0,0,7990,8481,100,1,78
20.49847697358872,32.718374055312694,0,0,8006,8481,100,1,79
20.448181600822938,32.796469183597104,0,0,7990,8481,100,1,80
20.445285152504233,33.007841051492626,0,0,7990,8481,100,1,81
20.445285152504233,33.007841051492626,0,0,7738,8481,100,1,82
20.445285152504233,32.92582694934499,0,0,6323,8481,100,1,83
20.36843549969461,32.92582694934499,0,0,4791,8481,100,1,84
20.08974306658367,32.92582694934499,0,0,3278,8481,100,1,85
19.87745172437051,32.92582694934499,0,0,1861,8481,100,1,86
19.87745172437051,32.829934164138706,0,0,555,8481,100,1,87
19.980370008135957,32.82528386273445,0,0,0,8481,100,1,88
20.130389346992743,32.82528386273445,0,0,0,8481,100,1,89
20.130389346992743,32.652043437904126,0,0,0,8481,100,1,90
19.939864927403992,32.652043437904126,0,0,0,8481,100,1,91
19.937040481232117,33.050893199657125,0,0,0,8481,100,1,92
19.937040481232117,33.13214740142346,0,0,0,8481,100,1,93
20.64044373395109,33.13214740142346,0,0,0,8481,100,1,94
20.64044373395109,33.13214740142346,0,0,0,8481,100,1,95
20.20331356782827,32.99183227507634,0,0,0,8481,100,1,96
20.20331356782827,32.914222702835175,0,0,0,8481,100,1,97
20.508636821522934,32.71299028550422,0,0,0,8481,100,1,98
20.508636821522934,32.71299028550422,0,0,0,8481,100,1,99
20.448181600822938,32.88085296868737,0,0,0,8481,100,1,100
20.445285152504233,33.09211237160873,0,0,0,8481,100,1,101
20.445285152504233,33.09211237160873,0,0,0,8481,100,1,102
20.445285152504233,32.92582694934499,0,0,0,8481,100,1,103
20.36843549969461,32.92582694934499,0,0,56,8481,100,1,104
20.092589145867688,32.93049149451508,0,0,664,8481,100,1,105
19.880267728705874,32.93049149451508,0,0,1599,8481,100,1,106
19.880267728705874,32.829934164138706,0,0,2686,8481,100,1,107
19.89139261295283,32.829934164138706,0,0,3875,8481,100,1,108
20.143772388536195,32.829934164138706,0,0,5102,8481,100,1,109
20.143772388536195,32.64058500226507,0,0,6378,8481,100,1,110
19.952972581190654,32.64058500226507,0,0,7610,8481,100,1,111
19.939864927403992,33.03122979050261,0,0,7990,8481,100,1,112
19.952972581190654,33.04328314021907,0,0,8006,8481,100,1,113
20.746768014555904,33.209027270305924,0,0,7990,8481,100,1,114
20.746768014555904,33.209027270305924,0,0,8006,8481,100,1,115
20.29496221486203,32.91888560405167,0,0,7990,8481,100,1,116
20.29496221486203,32.906766160711435,0,0,8006,8481,100,1,117
20.59773387467414,32.71373955619814,0,0,7990,8481,100,1,118
20.59773387467414,32.71373955619814,0,0,8006,8481,100,1,119
20.445285152504233,32.88085296868737,0,0,7990,8481,100,1,120
20.445285152504233,33.00316554989625,0,0,8006,8481,100,1,121
20.445285152504233,33.00316554989625,0,0,7990,8481,100,1,122
20.457279117850053,32.93049149451508,0,0,8006,8481,100,1,123
20.383756621145128,32.93049149451508,0,0,7990,8481,100,1,124
20.092589145867688,32.93049149451508,0,0,8006,8481,100,1,125
19.880267728705874,32.93049149451508,0,0,7990,8481,100,1,126
19.880267728705874,32.829934164138706,0,0,8006,8481,100,1,127
19.89139261295283,32.81853783825531,0,0,7990,8481,100,1,128
20.143772388536195,32.81853783825531,0,0,8006,8481,100,1,129
20.143772388536195,32.6474183344028,0,0,7990,8481,100,1,130
19.952972581190654,32.6474183344028,0,0,8006,8481,100,1,131
19.937040481232117,33.03122979050261,0,0,7990,8481,100,1,132
19.952972581190654,33.04328314021907,0,0,7990,8481,100,1,133
20.746768014555904,33.209027270305924,0,0,7673,8481,100,1,134
20.746768014555904,33.209027270305924,0,0,6180,8481,100,1,135
20.30784067313184,32.9965061711072,0,0,4603,8481,100,1,136
20.30784067313184,32.91888560405167,0,0,3054,8481,100,1,137
20.61451015349228,32.80738276268488,0,0,1617,8481,100,1,138
20.61451015349228,32.78579734215656,0,0,345,8481,100,1,139
20.35927304242048,32.78579734215656,0,0,0,8481,100,1,140
20.35927304242048,33.09680047414807,0,0,0,8481,100,1,141
20.383756621145128,33.09680047414807,0,0,0,8481,100,1,142
20.448181600822938,33.01941567530068,0,0,0,8481,100,1,143
20.383756621145128,32.93049149451508,0,0,0,8481,100,1,144
20.080774509789748,32.91888560405167,0,0,0,8481,100,1,145
19.880267728705874,32.91888560405167,0,0,0,8481,100,1,146
19.880267728705874,32.907520083287245,0,0,0,8481,100,1,147
19.89139261295283,32.81853783825531,0,0,0,8481,100,1,148
20.143310887799366,32.813889151120215,0,0,0,8481,100,1,149
20.143310887799366,32.646670582720404,0,0,0,8481,100,1,150
19.950146278343095,32.646670582720404,0,0,0,8481,100,1,151
19.93658384618034,33.038602618314265,0,0,0,8481,100,1,152
19.950146278343095,33.1146765142571,0,0,0,8481,100,1,153
20.8322301068422,33.20432327104181,0,0,0,8481,100,1,154
20.8322301068422,33.20432327104181,0,0,343,8481,100,1,155
20.291622702799117,32.91888560405167,0,0,1179,8481,100,1,156
20.291622702799117,32.90210518972326,0,0,2203,8481,100,1,157
20.61403786799174,32.80663113428945,0,0,3358,8481,100,1,158
20.61403786799174,32.780402477925854,0,0,4575,8481,100,1,159
20.35880660448973,32.780402477925854,0,0,5857,8481,100,1,160
20.35880660448973,32.99575020982959,0,0,7141,8481,100,1,161
20.380402498067536,32.99575020982959,0,0,7990,8481,100,1,162
20.53371761656686,33.01941567530068,0,0,7991,8481,100,1,163
20.380402498067536,32.92507282103251,0,0,7990,8481,100,1,164
20.077470242060734,32.93049149451508,0,0,8006,8481,100,1,165
19.86954149255634,32.92507282103251,0,0,7990,8481,100,1,166
19.86954149255634,32.829934164138706,0,0,8006,8481,100,1,167
19.89139261295283,32.82918201908293,0,0,7990,8481,100,1,168
20.143310887799366,32.82918201908293,0,0,8006,8481,100,1,169
20.143310887799366,32.6352140325534,0,0,7990,8481,100,1,170
20.025331298040427,32.6352140325534,0,0,8006,8481,100,1,171
19.93658384618034,33.025794540652406,0,0,7990,8481,100,1,172
20.025331298040427,33.037845907004396,0,0,8006,8481,100,1,173
20.743829272006206,33.1146765142571,0,0,7990,8481,100,1,174
20.743829272006206,33.1146765142571,0,0,8006,8481,100,1,175
20.29496221486203,32.907520083287245,0,0,7990,8481,100,1,176
20.29496221486203,32.907520083287245,0,0,8006,8481,100,1,177
20.61403786799174,32.80663113428945,0,0,7990,8481,100,1,178
20.61403786799174,32.78579734215656,0,0,8006,8481,100,1,179
20.35927304242048,32.78579734215656,0,0,7990,8481,100,1,180
20.35927304242048,32.9965061711072,0,0,8006,8481,100,1,181
20.371321060855422,32.9965061711072,0,0,7990,8481,100,1,182
20.448181600822938,32.91888560405167,0,0,7990,8481,100,1,183
20.371321060855422,32.91888560405167,0,0,7890,8481,100,1,184
20.080774509789748,32.829934164138706,0,0,6584,8481,100,1,185
19.869086274543427,32.82918201908293,0,0,4971,8481,100,1,186
19.869086274543427,32.82918201908293,0,0,3362,8481,100,1,187
19.89139261295283,32.81853783825531,0,0,1839,8481,100,1,188
20.129928152865986,32.72955946735369,0,0,441,8481,100,1,189
20.129928152865986,32.72955946735369,0,0,0,8481,100,1,190
19.939864927403992,32.74098676441698,0,0,0,8481,100,1,191
19.939864927403992,32.95442336343823,0,0,0,8481,100,1,192
19.939864927403992,33.03122979050261,0,0,0,8481,100,1,193
20.759137729640546,33.11936759847879,0,0,0,8481,100,1,194
20.759137729640546,33.11936759847879,0,0,0,8481,100,1,195
20.291622702799117,32.91346884030465,0,0,0,8481,100,1,196
20.291622702799117,32.907520083287245,0,0,0,8481,100,1,197
20.61403786799174,32.80663113428945,0,0,0,8481,100,1,198
20.61403786799174,32.78504620829052,0,0,0,8481,100,1,199
20.35927304242048,32.78504620829052,0,0,0,8481,100,1,200
20.35927304242048,33.00708483052901,0,0,0,8481,100,1,201
20.370854346900433,33.00708483052901,0,0,0,8481,100,1,202
20.447713125966608,32.91888560405167,0,0,0,8481,100,1,203
20.370854346900433,32.91813142108787,0,0,0,8481,100,1,204
20.080774509789748,32.85344955730018,0,0,0,8481,100,1,205
19.86954149255634,32.829934164138706,0,0,0,8481,100,1,206
19.86954149255634,32.829934164138706,0,0,0,8481,100,1,207
19.89139261295283,32.81853783825531,0,0,252,8481,100,1,208
20.129928152865986,32.72492338384554,0,0,1103,8481,100,1,209
20.129928152865986,32.72492338384554,0,0,2177,8481,100,1,210
19.939864927403992,32.72955946735369,0,0,3372,8481,100,1,211
19.939864927403992,32.9423375006241,0,0,4659,8481,100,1,212
19.939864927403992,32.95442336343823,0,0,5967,8481,100,1,213
20.65836567909929,33.12012639193807,0,0,7314,8481,100,1,214
20.65836567909929,33.12012639193807,0,0,7989,8481,100,1,215
20.307375413534317,32.91888560405167,0,0,7990,8481,100,1,216
20.307375413534317,32.81778595429327,0,0,8006,8481,100,1,217
20.61451015349228,32.80738276268488,0,0,7990,8481,100,1,218
20.61451015349228,32.696729873903394,0,0,8006,8481,100,1,219
20.35880660448973,32.696729873903394,0,0,7990,8481,100,1,220
20.35880660448973,33.01398236944918,0,0,8006,8481,100,1,221
20.367968984034583,33.01398236944918,0,0,7990,8481,100,1,222
20.43320972431352,32.92507282103251,0,0,8006,8481,100,1,223
20.367968984034583,32.92507282103251,0,0,7990,8481,100,1,224
19.97708226184911,32.92507282103251,0,0,8006,8481,100,1,225
19.866271982970833,32.83616744738616,0,0,7990,8481,100,1,226
19.866271982970833,32.81853783825531,0,0,8006,8481,100,1,227
19.87699645413088,32.81778595429327,0,0,7990,8481,100,1,228
20.143310887799366,32.81313758661465,0,0,8006,8481,100,1,229
20.143310887799366,32.63983719526355,0,0,7990,8481,100,1,230
19.939864927403992,32.63983719526355,0,0,8006,8481,100,1,231
19.939408098257058,32.95442336343823,0,0,7990,8481,100,1,232
19.939864927403992,33.03122979050261,0,0,8006,8481,100,1,233
20.654966369425537,33.1146765142571,0,0,7990,8481,100,1,234
20.654966369425537,33.1146765142571,0,0,7999,8481,100,1,235
20.393222781462878,32.91346884030465,0,0,7990,8481,100,1,236
20.393222781462878,32.91346884030465,0,0,7082,8481,100,1,237
20.625354616402575,32.80198434659873,0,0,5522,8481,100,1,238
20.625354616402575,32.780402477925854,0,0,3946,8481,100,1,239
20.444816876691025,32.780402477925854,0,0,2451,8481,100,1,240
20.355922948086846,32.99107663498756,0,0,1052,8481,100,1,241
20.367968984034583,32.99107663498756,0,0,64,8481,100,1,242
20.367968984034583,32.92507282103251,0,0,0,8481,100,1,243
20.367968984034583,32.84879592498257,0,0,0,8481,100,1,244
19.989009778850722,32.83691953937636,0,0,0,8481,100,1,245
19.866727007573125,32.83691953937636,0,0,0,8481,100,1,246
19.79079334452352,32.82918201908293,0,0,0,8481,100,1,247
19.79079334452352,32.81778595429327,0,0,0,8481,100,1,248
20.129928152865986,32.81778595429327,0,0,0,8481,100,1,249
20.129928152865986,32.63983719526355,0,0,0,8481,100,1,250
19.939864927403992,32.63983719526355,0,0,0,8481,100,1,251
19.939408098257058,32.95442336343823,0,0,0,8481,100,1,252
19.939864927403992,33.04328314021907,0,0,0,8481,100,1,253
20.55491216535173,33.12012639193807,0,0,0,8481,100,1,254
20.55491216535173,33.12012639193807,0,0,0,8481,100,1,255
20.215783716094297,32.91346884030465,0,0,0,8481,100,1,0
20.215783716094297,32.90210518972326,0,0,0,8481,100,1,1
20.625354616402575,32.80198434659873,0,0,0,8481,100,1,2
20.625354616402575,32.7910725633275,0,0,28,8481,100,1,3
20.35880660448973,32.7910725633275,0,0,574,8481,100,1,4
20.355922948086846,32.99575020982959,0,0,1475,8481,100,1,5
20.35880660448973,33.01398236944918,0,0,2544,8481,100,1,6
20.367968984034583,33.01398236944918,0,0,3699,8481,100,1,7
20.367968984034583,32.93767127748845,0,0,4926,8481,100,1,8
19.989009778850722,32.92507282103251,0,0,6164,8481,100,1,9
19.879812264951212,32.92507282103251,0,0,7440,8481,100,1,10
19.87699645413088,32.82918201908293,0,0,7990,8481,100,1,11
19.879812264951212,32.82918201908293,0,0,7990,8481,100,1,12
20.054659357837195,32.728809621916646,0,0,8006,8481,100,1,13
20.054659357837195,32.728809621916646,0,0,7990,8481,100,1,14
19.939408098257058,32.728809621916646,0,0,8006,8481,100,1,15
19.93658384618034,32.94158278036931,0,0,7990,8481,100,1,16
19.93658384618034,33.037845907004396,0,0,8006,8481,100,1,17
20.743354158382264,33.12669554569957,0,0,7990,8481,100,1,18
20.743354158382264,33.12669554569957,0,0,8006,8481,100,1,19
20.31776303527353,32.91346884030465,0,0,7990,8481,100,1,20
20.31776303527353,32.906766160711435,0,0,8006,8481,100,1,21
20.625354616402575,32.81313758661465,0,0,7990,8481,100,1,22
20.625354616402575,32.780402477925854,0,0,8006,8481,100,1,23
20.444816876691025,32.780402477925854,0,0,7990,8481,100,1,24
20.444816876691025,32.99107663498756,0,0,8006,8481,100,1,25
20.444816876691025,33.002409650231805,0,0,7990,8481,100,1,26
20.444816876691025,33.002409650231805,0,0,8006,8481,100,1,27
20.367968984034583,32.94158278036931,0,0,7990,8481,100,1,28
20.080314452355935,32.92507282103251,0,0,8006,8481,100,1,29
19.87699645413088,32.92507282103251,0,0,7990,8481,100,1,30
19.801967984265655,32.81778595429327,0,0,8006,8481,100,1,31
19.801967984265655,32.81778595429327,0,0,7990,8481,100,1,32
20.143310887799366,32.724173856998874,0,0,7712,8481,100,1,33
20.143310887799366,32.63983719526355,0,0,6302,8481,100,1,34
19.952972581190654,32.63983719526355,0,0,4727,8481,100,1,35
19.939408098257058,32.9423375006241,0,0,3209,8481,100,1,36
19.952972581190654,33.04328314021907,0,0,1762,8481,100,1,37
20.75866226539393,33.1146765142571,0,0,458,8481,100,1,38
20.75866226539393,33.1146765142571,0,0,0,8481,100,1,39
20.31776303527353,33.002409650231805,0,0,0,8481,100,1,40
20.31776303527353,32.90210518972326,0,0,0,8481,100,1,41
20.61111806019347,32.80198434659873,0,0,0,8481,100,1,42
20.61111806019347,32.78504620829052,0,0,0,8481,100,1,43
20.355922948086846,32.78504620829052,0,0,0,8481,100,1,44
20.355922948086846,32.99107663498756,0,0,0,8481,100,1,45
20.38328962228719,33.00708483052901,0,0,0,8481,100,1,46
20.447713125966608,33.00708483052901,0,0,0,8481,100,1,47
20.38328962228719,33.00708483052901,0,0,0,8481,100,1,48
20.089282934054264,32.91813142108787,0,0,0,8481,100,1,49
19.888119507791274,32.91813142108787,0,0,0,8481,100,1,50
19.879812264951212,32.81778595429327,0,0,0,8481,100,1,51
19.888119507791274,32.81313758661465,0,0,0,8481,100,1,52
20.143310887799366,32.728809621916646,0,0,0,8481,100,1,53
20.143310887799366,32.63983719526355,0,0,0,8481,100,1,54
19.939408098257058,32.63983719526355,0,0,14,8481,100,1,55
19.93658384618034,33.025794540652406,0,0,496,8481,100,1,56
19.93658384618034,33.03047303369496,0,0,1355,8481,100,1,57
20.639970988254348,33.1146765142571,0,0,2379,8481,100,1,58
20.639970988254348,33.1146765142571,0,0,3489,8481,100,1,59
20.42002072046316,32.99107663498756,0,0,4670,8481,100,1,60
20.42002072046316,32.906766160711435,0,0,5866,8481,100,1,61
20.73135914429892,32.89564151366051,0,0,7104,8481,100,1,62
20.73135914429892,32.77461657958239,0,0,7957,8481,100,1,63
20.444816876691025,32.77461657958239,0,0,7990,8481,100,1,64
20.444816876691025,33.08005189140619,0,0,8006,8481,100,1,65
20.444816876691025,33.08005189140619,0,0,7990,8481,100,1,66
20.447713125966608,33.002409650231805,0,0,8006,8481,100,1,67
20.380402498067536,32.92973704565637,0,0,7990,8481,100,1,68
20.080314452355935,32.91346884030465,0,0,8006,8481,100,1,69
19.87699645413088,32.91346884030465,0,0,7990,8481,100,1,70
19.87699645413088,32.82453203724608,0,0,8006,8481,100,1,71
19.87699645413088,32.81778595429327,0,0,7990,8481,100,1,72
20.142849003991167,32.81778595429327,0,0,8006,8481,100,1,73
20.142849003991167,32.6352140325534,0,0,7990,8481,100,1,74
19.93658384618034,32.6352140325534,0,0,8006,8481,100,1,75
19.93658384618034,32.93691687789521,0,0,7990,8481,100,1,76
19.93658384618034,33.037845907004396,0,0,8006,8481,100,1,77
20.536850562266867,33.1028960589977,0,0,7990,8481,100,1,78
20.536850562266867,33.1028960589977,0,0,8006,8481,100,1,79
20.42002072046316,32.91346884030465,0,0,7990,8481,100,1,80
20.42002072046316,32.81313758661465,0,0,8006,8481,100,1,81
20.81688493541786,32.80198434659873,0,0,7990,8481,100,1,82
20.81688493541786,32.77461657958239,0,0,8006,8481,100,1,83
20.444816876691025,32.77461657958239,0,0,7990,8481,100,1,84
20.44434821217362,33.07929358446467,0,0,7592,8481,100,1,85
20.44434821217362,33.07929358446467,0,0,6137,8481,100,1,86
20.44434821217362,33.00708483052901,0,0,4591,8481,100,1,87
20.38328962228719,32.91346884030465,0,0,3111,8481,100,1,88
20.080314452355935,32.84081907751599,0,0,1714,8481,100,1,89
19.890936894323254,32.81778595429327,0,0,457,8481,100,1,90
19.879812264951212,32.81778595429327,0,0,0,8481,100,1,91
19.890936894323254,32.81778595429327,0,0,0,8481,100,1,92
20.142849003991167,32.724173856998874,0,0,0,8481,100,1,93
20.142849003991167,32.646670582720404,0,0,0,8481,100,1,94
19.939408098257058,32.646670582720404,0,0,0,8481,100,1,95
19.93658384618034,32.91813142108787,0,0,0,8481,100,1,96
19.939408098257058,33.03047303369496,0,0,0,8481,100,1,97
20.53975984919873,33.13138833255872,0,0,0,8481,100,1,98
20.53975984919873,33.13138833255872,0,0,0,8481,100,1,99
20.50816669403602,32.91271435201145,0,0,0,8481,100,1,100
20.50816669403602,32.89564151366051,0,0,0,8481,100,1,101
20.8053397729991,32.81778595429327,0,0,0,8481,100,1,102
20.8053397729991,32.69134966561939,0,0,0,8481,100,1,103
20.444816876691025,32.69134966561939,0,0,0,8481,100,1,104
20.444816876691025,32.99107663498756,0,0,0,8481,100,1,105
20.444816876691025,33.00165312311369,0,0,0,8481,100,1,106
20.46872089352905,33.00165312311369,0,0,203,8481,100,1,107
20.46872089352905,32.83541473110295,0,0,983,8481,100,1,108
19.988093748123283,32.82453203724608,0,0,1983,8481,100,1,109
19.888119507791274,32.81313758661465,0,0,3124,8481,100,1,110
19.87699645413088,32.81313758661465,0,0,4335,8481,100,1,111
19.888119507791274,32.81313758661465,0,0,5612,8481,100,1,112
20.142849003991167,32.724173856998874,0,0,6893,8481,100,1,113
20.142849003991167,32.6352140325534,0,0,7929,8481,100,1,114
19.93658384618034,32.6352140325534,0,0,7990,8481,100,1,115
19.93612683208707,32.936161852093484,0,0,7990,8481,100,1,116
19.93612683208707,33.01865918915847,0,0,8006,8481,100,1,117
20.43399685824518,33.1146765142571,0,0,7990,8481,100,1,118
20.508636821522934,33.1146765142571,0,0,8006,8481,100,1,119
20.508636821522934,32.90210518972326,0,0,7990,8481,100,1,120
20.508636821522934,32.890228145565175,0,0,8006,8481,100,1,121
20.816407741839118,32.81238539825392,0,0,7990,8481,100,1,122
20.816407741839118,32.69060026905073,0,0,8006,8481,100,1,123
20.355922948086846,32.69060026905073,0,0,7990,8481,100,1,124
20.355922948086846,33.013225577045105,0,0,8006,8481,100,1,125
20.367502081131413,33.013225577045105,0,0,7990,8481,100,1,126
20.44434821217362,32.91271435201145,0,0,8006,8481,100,1,127
20.367502081131413,32.91271435201145,0,0,7990,8481,100,1,128
19.97662431939485,32.91271435201145,0,0,8006,8481,100,1,129
19.888119507791274,32.82377958768593,0,0,7990,8481,100,1,130
19.865816580663846,32.81703344622556,0,0,8006,8481,100,1,131
19.888119507791274,32.724173856998874,0,0,7990,8481,100,1,132
20.142849003991167,32.71762446613729,0,0,8006,8481,100,1,133
20.142849003991167,32.639088767540485,0,0,7990,8481,100,1,134
19.93895088991643,32.639088767540485,0,0,7990,8481,100,1,135
19.93612683208707,32.84729057245338,0,0,7379,8481,100,1,136
19.93612683208707,32.92507282103251,0,0,5788,8481,100,1,137
20.43399685824518,33.1146765142571,0,0,4209,8481,100,1,138
20.43399685824518,33.1146765142571,0,0,2667,8481,100,1,139
20.43352844175928,32.91271435201145,0,0,1231,8481,100,1,140
20.43352844175928,32.90210518972326,0,0,116,8481,100,1,141
20.7168031251869,32.80663113428945,0,0,0,8481,100,1,142
20.7168031251869,32.70668143799516,0,0,0,8481,100,1,143
20.355922948086846,32.70668143799516,0,0,0,8481,100,1,144
20.355922948086846,32.99107663498756,0,0,0,8481,100,1,145
20.367968984034583,32.99107663498756,0,0,0,8481,100,1,146
20.444816876691025,32.91346884030465,0,0,0,8481,100,1,147
20.367968984034583,32.84081907751599,0,0,0,8481,100,1,148
19.979912251003725,32.83616744738616,0,0,0,8481,100,1,149
19.888119507791274,32.83616744738616,0,0,0,8481,100,1,150
19.87699645413088,32.81778595429327,0,0,0,8481,100,1,151
19.888119507791274,32.81313758661465,0,0,0,8481,100,1,152
20.140457754580638,32.728809621916646,0,0,0,8481,100,1,153
20.140457754580638,32.63983719526355,0,0,0,8481,100,1,154
19.939408098257058,32.63983719526355,0,0,0,8481,100,1,155
19.93658384618034,32.86016011703912,0,0,0,8481,100,1,156
19.93658384618034,32.93691687789521,0,0,0,8481,100,1,157
20.42002072046316,33.1028960589977,0,0,0,8481,100,1,158
20.43352844175928,33.1028960589977,0,0,0,8481,100,1,159
20.43352844175928,32.91271435201145,0,0,383,8481,100,1,160
20.43352844175928,32.9060116123378,0,0,1261,8481,100,1,161
20.816407741839118,32.890228145565175,0,0,2326,8481,100,1,162
20.816407741839118,32.76922312757585,0,0,3480,8481,100,1,163
20.44434821217362,32.76922312757585,0,0,4701,8481,100,1,164
20.355456321319664,32.99032036766057,0,0,5938,8481,100,1,165
20.367502081131413,32.99032036766057,0,0,7222,8481,100,1,166
20.367502081131413,32.92431806673672,0,0,7982,8481,100,1,167
20.367502081131413,32.92431806673672,0,0,7990,8481,100,1,168
19.97662431939485,32.92431806673672,0,0,8006,8481,100,1,169
19.890936894323254,32.92431806673672,0,0,7990,8481,100,1,170
19.865816580663846,32.82453203724608,0,0,8006,8481,100,1,171
19.890936894323254,32.81778595429327,0,0,7990,8481,100,1,172
20.142849003991167,32.71762446613729,0,0,8006,8481,100,1,173
20.142849003991167,32.63983719526355,0,0,7990,8481,100,1,174
19.939408098257058,32.63983719526355,0,0,8006,8481,100,1,175
19.91437937375436,32.92973704565637,0,0,7990,8481,100,1,176
19.91437937375436,32.95366836629218,0,0,8006,8481,100,1,177
20.43399685824518,33.1146765142571,0,0,7990,8481,100,1,178
20.524989225640095,33.1146765142571,0,0,8006,8481,100,1,179
20.524989225640095,32.917376612110125,0,0,7990,8481,100,1,180
20.524989225640095,32.906766160711435,0,0,8006,8481,100,1,181
20.816407741839118,32.90135096192344,0,0,7990,8481,100,1,182
20.816407741839118,32.7738650613835,0,0,8006,8481,100,1,183
20.358339779389457,32.7738650613835,0,0,7990,8481,100,1,184
20.358339779389457,32.983899239836916,0,0,8006,8481,100,1,185
20.37993531014607,32.983899239836916,0,0,7990,8481,100,1,186
20.44434821217362,32.91271435201145,0,0,8006,8481,100,1,187
20.37993531014607,32.91271435201145,0,0,7990,8481,100,1,188
19.97662431939485,32.91346884030465,0,0,7483,8481,100,1,189
19.888119507791274,32.91346884030465,0,0,5957,8481,100,1,190
19.87699645413088,32.81703344622556,0,0,4370,8481,100,1,191
19.888119507791274,32.81313758661465,0,0,2842,8481,100,1,192
20.140457754580638,32.71299028550422,0,0,1388,8481,100,1,193
20.140457754580638,32.63446592280376,0,0,188,8481,100,1,194
19.93612683208707,32.63446592280376,0,0,0,8481,100,1,195
19.91437937375436,32.92973704565637,0,0,0,8481,100,1,196
19.91437937375436,32.936161852093484,0,0,0,8481,100,1,197
20.448356730160484,33.025794540652406,0,0,0,8481,100,1,198
20.522082164138208,33.025794540652406,0,0,0,8481,100,1,199
20.522082164138208,32.91271435201145,0,0,0,8481,100,1,200
20.522082164138208,32.90210518972326,0,0,0,8481,100,1,201
20.727947553188347,32.90135096192344,0,0,0,8481,100,1,202
20.727947553188347,32.69060026905073,0,0,0,8481,100,1,203
20.44434821217362,32.69060026905073,0,0,0,8481,100,1,204
20.44434821217362,32.979227557790786,0,0,0,8481,100,1,205
20.44434821217362,33.00165312311369,0,0,0,8481,100,1,206
20.44434821217362,33.00165312311369,0,0,0,8481,100,1,207
20.37993531014607,32.92431806673672,0,0,0,8481,100,1,208
19.899184308354005,32.82377958768593,0,0,0,8481,100,1,209
19.88766360466495,32.82377958768593,0,0,0,8481,100,1,210
19.876540805982653,32.82377958768593,0,0,0,8481,100,1,211
19.88766360466495,32.81238539825392,0,0,0,8481,100,1,212
20.139996067006194,32.71224039285917,0,0,290,8481,100,1,213
20.139996067006194,32.63446592280376,0,0,1129,8481,100,1,214
19.94923202860236,32.63446592280376,0,0,2158,8481,100,1,215
19.93612683208707,32.936161852093484,0,0,3311,8481,100,1,216
19.94923202860236,33.02503747747332,0,0,4516,8481,100,1,217
20.53637978802536,33.102137228390426,0,0,5773,8481,100,1,218
20.63949785014307,33.102137228390426,0,0,7022,8481,100,1,219
20.63949785014307,33.00165312311369,0,0,7961,8481,100,1,220
20.63949785014307,32.90135096192344,0,0,7990,8481,100,1,221
20.816407741839118,32.90135096192344,0,0,7990,8481,100,1,222
20.816407741839118,32.76922312757585,0,0,8006,8481,100,1,223
20.355456321319664,32.76922312757585,0,0,7990,8481,100,1,224
20.355456321319664,32.979227557790786,0,0,8006,8481,100,1,225
20.37993531014607,33.00165312311369,0,0,7990,8481,100,1,226
20.44434821217362,33.00165312311369,0,0,8006,8481,100,1,227
20.37993531014607,33.00165312311369,0,0,7990,8481,100,1,228
19.988093748123283,32.91271435201145,0,0,8006,8481,100,1,229
19.88766360466495,32.91271435201145,0,0,7990,8481,100,1,230
19.876540805982653,32.81238539825392,0,0,8006,8481,100,1,231
19.88766360466495,32.723423707988445,0,0,7990,8481,100,1,232
20.139996067006194,32.71224039285917,0,0,8006,8481,100,1,233
20.139996067006194,32.639088767540485,0,0,7990,8481,100,1,234
19.94923202860236,32.639088767540485,0,0,8006,8481,100,1,235
19.93895088991643,33.013225577045105,0,0,7990,8481,100,1,236
19.94923202860236,33.02503747747332,0,0,8006,8481,100,1,237
20.33094785917682,33.102137228390426,0,0,7990,8481,100,1,238
20.63949785014307,33.102137228390426,0,0,8006,8481,100,1,239
20.63949785014307,32.99032036766057,0,0,7990,8481,100,1,240
20.63949785014307,32.90135096192344,0,0,7990,8481,100,1,241
20.831275434094024,32.890228145565175,0,0,7695,8481,100,1,242
20.831275434094024,32.76922312757585,0,0,6206,8481,100,1,243
20.355456321319664,32.76922312757585,0,0,4611,8481,100,1,244
20.355456321319664,32.979227557790786,0,0,3030,8481,100,1,245
20.355456321319664,33.00165312311369,0,0,1542,8481,100,1,246
20.37993531014607,33.00165312311369,0,0,253,8481,100,1,247
20.37993531014607,32.92898197056297,0,0,0,8481,100,1,248
19.990925167341214,32.82377958768593,0,0,0,8481,100,1,249
19.89048079742177,32.81703344622556,0,0,0,8481,100,1,250
19.876540805982653,32.81238539825392,0,0,0,8481,100,1,251
19.89048079742177,32.81238539825392,0,0,0,8481,100,1,252
20.21532030179343,32.71224039285917,0,0,0,8481,100,1,253
20.21532030179343,32.639088767540485,0,0,0,8481,100,1,254
19.93895088991643,32.639088767540485,0,0,0,8481,100,1,255
19.93612683208707,32.92431806673672,0,0,0,8481,100,1,0
19.93612683208707,32.94824544918979,0,0,0,8481,100,1,1
20.33094785917682,33.102137228390426,0,0,0,8481,100,1,2
20.63949785014307,33.102137228390426,0,0,0,8481,100,1,3
20.63949785014307,32.99032036766057,0,0,0,8481,100,1,4
20.63949785014307,32.90135096192344,0,0,0,8481,100,1,5
20.831275434094024,32.894887220373754,0,0,0,8481,100,1,6
20.831275434094024,32.69060026905073,0,0,0,8481,100,1,7
20.355456321319664,32.69060026905073,0,0,0,8481,100,1,8
20.355456321319664,32.979227557790786,0,0,0,8481,100,1,9
20.44434821217362,32.979227557790786,0,0,51,8481,100,1,10
20.46872089352905,32.90135096192344,0,0,685,8481,100,1,11
20.46872089352905,32.90135096192344,0,0,1675,8481,100,1,12
19.988093748123283,32.82302651418747,0,0,2813,8481,100,1,13
19.88766360466495,32.81238539825392,0,0,4053,8481,100,1,14
19.876540805982653,32.81238539825392,0,0,5327,8481,100,1,15
19.88766360466495,32.81238539825392,0,0,6644,8481,100,1,16
20.2023877162614,32.71224039285917,0,0,7799,8481,100,1,17
20.2023877162614,32.71224039285917,0,0,7990,8481,100,1,18
19.93612683208707,32.723423707988445,0,0,8006,8481,100,1,19
19.93612683208707,32.84729057245338,0,0,7990,8481,100,1,20
19.93612683208707,32.91271435201145,0,0,8006,8481,100,1,21
20.21532030179343,33.013225577045105,0,0,7990,8481,100,1,22
20.63949785014307,33.013225577045105,0,0,8006,8481,100,1,23
20.63949785014307,32.90135096192344,0,0,7990,8481,100,1,24
20.63949785014307,32.81238539825392,0,0,8006,8481,100,1,25
20.846039999769967,32.800479857707735,0,0,7990,8481,100,1,26
20.846039999769967,32.68014394144929,0,0,8006,8481,100,1,27
20.355456321319664,32.68014394144929,0,0,7990,8481,100,1,28
20.355456321319664,32.979227557790786,0,0,8006,8481,100,1,29
20.37946773482796,32.979227557790786,0,0,7990,8481,100,1,30
20.44434821217362,32.9119592380894,0,0,8006,8481,100,1,31
20.37946773482796,32.82377958768593,0,0,7990,8481,100,1,32
19.97662431939485,32.82377958768593,0,0,8006,8481,100,1,33
19.89048079742177,32.72805915406604,0,0,7990,8481,100,1,34
19.876540805982653,32.72805915406604,0,0,8006,8481,100,1,35
19.89048079742177,32.72805915406604,0,0,7990,8481,100,1,36
20.11362591384293,32.71224039285917,0,0,8006,8481,100,1,37
20.11362591384293,32.63446592280376,0,0,7990,8481,100,1,38
19.93612683208707,32.63446592280376,0,0,7912,8481,100,1,39
19.93612683208707,32.91271435201145,0,0,6736,8481,100,1,40
19.93612683208707,32.936161852093484,0,0,5144,8481,100,1,41
20.21532030179343,33.013225577045105,0,0,3587,8481,100,1,42
20.639024319701186,33.013225577045105,0,0,2080,8481,100,1,43
20.639024319701186,32.9005961087108,0,0,681,8481,100,1,44
20.639024319701186,32.80123241390808,0,0,0,8481,100,1,45
20.83422629445826,32.80123241390808,0,0,0,8481,100,1,46
20.83422629445826,32.695231065514555,0,0,0,8481,100,1,47
20.355456321319664,32.695231065514555,0,0,0,8481,100,1,48
20.355456321319664,32.979227557790786,0,0,0,8481,100,1,49
20.37946773482796,32.979227557790786,0,0,0,8481,100,1,50
20.44434821217362,32.9005961087108,0,0,0,8481,100,1,51
20.37946773482796,32.83541473110295,0,0,0,8481,100,1,52
19.97662431939485,32.82377958768593,0,0,0,8481,100,1,53
19.88766360466495,32.80123241390808,0,0,0,8481,100,1,54
19.865816580663846,32.723423707988445,0,0,0,8481,100,1,55
19.88766360466495,32.72267293694737,0,0,0,8481,100,1,56
20.139996067006194,32.62325211278463,0,0,0,8481,100,1,57
20.139996067006194,32.62325211278463,0,0,0,8481,100,1,58
19.93612683208707,32.63371719271443,0,0,0,8481,100,1,59
19.935669439033383,32.83541473110295,0,0,0,8481,100,1,60
19.93612683208707,32.91271435201145,0,0,0,8481,100,1,61
20.317297283260928,33.013225577045105,0,0,0,8481,100,1,62
20.63949785014307,33.013225577045105,0,0,0,8481,100,1,63
20.63949785014307,32.91271435201145,0,0,347,8481,100,1,64
20.63949785014307,32.90135096192344,0,0,1212,8481,100,1,65
20.84651827986595,32.890228145565175,0,0,2267,8481,100,1,66
20.84651827986595,32.6122810304198,0,0,3416,8481,100,1,67
20.355456321319664,32.6122810304198,0,0,4641,8481,100,1,68
20.354989307621146,32.979227557790786,0,0,5881,8481,100,1,69
20.355456321319664,32.979227557790786,0,0,7156,8481,100,1,70
20.367502081131413,32.90135096192344,0,0,7971,8481,100,1,71
20.367502081131413,32.83541473110295,0,0,7990,8481,100,1,72
19.97662431939485,32.82377958768593,0,0,8006,8481,100,1,73
19.88766360466495,32.81238539825392,0,0,7990,8481,100,1,74
19.876540805982653,32.73484886279422,0,0,8006,8481,100,1,75
19.88766360466495,32.723423707988445,0,0,7990,8481,100,1,76
20.11362591384293,32.62325211278463,0,0,8006,8481,100,1,77
20.11362591384293,32.62325211278463,0,0,7990,8481,100,1,78
19.93612683208707,32.62325211278463,0,0,8006,8481,100,1,79
19.911102226357936,32.84729057245338,0,0,7990,8481,100,1,80
19.911102226357936,32.91271435201145,0,0,8006,8481,100,1,81
20.228642159452036,33.013225577045105,0,0,7990,8481,100,1,82
20.727947553188347,33.013225577045105,0,0,8006,8481,100,1,83
20.727947553188347,33.00165312311369,0,0,7990,8481,100,1,84
20.727947553188347,32.81238539825392,0,0,8006,8481,100,1,85
20.846039999769967,32.8116325861715,0,0,7990,8481,100,1,86
20.846039999769967,32.68985025107533,0,0,8006,8481,100,1,87
20.355456321319664,32.68985025107533,0,0,7990,8481,100,1,88
20.354989307621146,32.890228145565175,0,0,8006,8481,100,1,89
20.355456321319664,32.9119592380894,0,0,7990,8481,100,1,90
20.37946773482796,32.9119592380894,0,0,7990,8481,100,1,91
20.37946773482796,32.83466139066029,0,0,7989,8481,100,1,92
19.976165997210366,32.82302651418747,0,0,6993,8481,100,1,93
19.88766360466495,32.81238539825392,0,0,5429,8481,100,1,94
19.78753653467447,32.74651560414521,0,0,3852,8481,100,1,95
19.88766360466495,32.723423707988445,0,0,2357,8481,100,1,96
20.113164448441207,32.611532809316785,0,0,957,8481,100,1,97
20.113164448441207,32.611532809316785,0,0,37,8481,100,1,98
19.93612683208707,32.63446592280376,0,0,0,8481,100,1,99
19.92341664585208,32.92431806673672,0,0,0,8481,100,1,100
19.92341664585208,32.94824544918979,0,0,0,8481,100,1,101
20.228642159452036,33.013225577045105,0,0,0,8481,100,1,102
20.63949785014307,33.013225577045105,0,0,0,8481,100,1,103
20.63949785014307,33.00165312311369,0,0,0,8481,100,1,104
20.63949785014307,32.81238539825392,0,0,0,8481,100,1,105
20.831275434094024,32.81238539825392,0,0,0,8481,100,1,106
20.831275434094024,32.70129916552216,0,0,0,8481,100,1,107
20.355456321319664,32.70129916552216,0,0,0,8481,100,1,108
20.355456321319664,32.890228145565175,0,0,0,8481,100,1,109
20.355456321319664,32.9119592380894,0,0,0,8481,100,1,110
20.44434821217362,32.9119592380894,0,0,0,8481,100,1,111
20.2782046377837,32.9119592380894,0,0,0,8481,100,1,112
19.89872776286985,32.82302651418747,0,0,0,8481,100,1,113
19.89872776286985,32.73484886279422,0,0,0,8481,100,1,114
19.876540805982653,32.73484886279422,0,0,0,8481,100,1,115
19.89872776286985,32.72267293694737,0,0,278,8481,100,1,116
20.113164448441207,32.611532809316785,0,0,1083,8481,100,1,117
20.113164448441207,32.611532809316785,0,0,2085,8481,100,1,118
19.93612683208707,32.63446592280376,0,0,3194,8481,100,1,119
19.926238903216326,32.917376612110125,0,0,4386,8481,100,1,120
19.926238903216326,32.936161852093484,0,0,5602,8481,100,1,121
20.228642159452036,33.013225577045105,0,0,6865,8481,100,1,122
20.74287865037822,33.013225577045105,0,0,7886,8481,100,1,123
20.74287865037822,33.00165312311369,0,0,7990,8481,100,1,124
20.74287865037822,32.8116325861715,0,0,8006,8481,100,1,125
20.846039999769967,32.800479857707735,0,0,7990,8481,100,1,126
20.846039999769967,32.67939416337263,0,0,8006,8481,100,1,127
20.354989307621146,32.67939416337263,0,0,7990,8481,100,1,128
20.354989307621146,32.889473547542465,0,0,8006,8481,100,1,129
20.36703479106794,32.9119592380894,0,0,7990,8481,100,1,130
20.37946773482796,32.9119592380894,0,0,8006,8481,100,1,131
20.37946773482796,32.83466139066029,0,0,7990,8481,100,1,132
19.88720732349943,32.8116325861715,0,0,8006,8481,100,1,133
19.88720732349943,32.72267293694737,0,0,7990,8481,100,1,134
19.88720732349943,32.72267293694737,0,0,8006,8481,100,1,135
19.89872776286985,32.72267293694737,0,0,7990,8481,100,1,136
20.10056678692711,32.611532809316785,0,0,8006,8481,100,1,137
20.10056678692711,32.55012231867511,0,0,7990,8481,100,1,138
19.93895088991643,32.55012231867511,0,0,8006,8481,100,1,139
19.92341664585208,32.91271435201145,0,0,7990,8481,100,1,140
19.92341664585208,32.923562686591524,0,0,8006,8481,100,1,141
20.126153770939013,32.923562686591524,0,0,7990,8481,100,1,142
20.830797503713505,33.00089596867613,0,0,7990,8481,100,1,143
20.830797503713505,33.00089596867613,0,0,7958,8481,100,1,144
20.830797503713505,32.800479857707735,0,0,6831,8481,100,1,145
20.830797503713505,32.72267293694737,0,0,5263,8481,100,1,146
20.830797503713505,32.70054890208279,0,0,3689,8481,100,1,147
20.354989307621146,32.70054890208279,0,0,2195,8481,100,1,148
20.354989307621146,32.889473547542465,0,0,800,8481,100,1,149
20.354989307621146,32.9005961087108,0,0,9,8481,100,1,150
20.354989307621146,32.9005961087108,0,0,0,8481,100,1,151
20.290692011514896,32.83466139066029,0,0,0,8481,100,1,152
19.88720732349943,32.82302651418747,0,0,0,8481,100,1,153
19.88720732349943,32.81238539825392,0,0,0,8481,100,1,154
19.876540805982653,32.72267293694737,0,0,0,8481,100,1,155
19.89872776286985,32.71148987839605,0,0,0,8481,100,1,156
20.113164448441207,32.611532809316785,0,0,0,8481,100,1,157
20.113164448441207,32.611532809316785,0,0,0,8481,100,1,158
19.935669439033383,32.63371719271443,0,0,0,8481,100,1,159
19.92295954440724,32.84729057245338,0,0,0,8481,100,1,160
19.92295954440724,32.9119592380894,0,0,0,8481,100,1,161
20.126153770939013,33.012468157101615,0,0,0,8481,100,1,162
20.742402748078437,33.012468157101615,0,0,0,8481,100,1,163
20.742402748078437,33.00089596867613,0,0,0,8481,100,1,164
20.742402748078437,32.800479857707735,0,0,0,8481,100,1,165
20.830797503713505,32.800479857707735,0,0,0,8481,100,1,166
20.830797503713505,32.70054890208279,0,0,22,8481,100,1,167
20.343798718983603,32.70054890208279,0,0,578,8481,100,1,168
20.343798718983603,32.890228145565175,0,0,1539,8481,100,1,169
20.37946773482796,32.9005961087108,0,0,2686,8481,100,1,170
20.44387915903516,32.9005961087108,0,0,3926,8481,100,1,171
20.37946773482796,32.83466139066029,0,0,5241,8481,100,1,172
19.98763516279656,32.8116325861715,0,0,6563,8481,100,1,173
19.876084780006668,32.72267293694737,0,0,7792,8481,100,1,174
19.80982726496308,32.72267293694737,0,0,7990,8481,100,1,175
19.80982726496308,32.71148987839605,0,0,7990,8481,100,1,176
20.10056678692711,32.611532809316785,0,0,8006,8481,100,1,177
20.10056678692711,32.54476538549363,0,0,7990,8481,100,1,178
19.94877433487714,32.54476538549363,0,0,8006,8481,100,1,179
19.92295954440724,32.83466139066029,0,0,7990,8481,100,1,180
19.94877433487714,32.9119592380894,0,0,8006,8481,100,1,181
20.13953399659603,32.9119592380894,0,0,7990,8481,100,1,182
20.742402748078437,33.00089596867613,0,0,8006,8481,100,1,183
20.742402748078437,33.00089596867613,0,0,7990,8481,100,1,184
20.742402748078437,32.800479857707735,0,0,8006,8481,100,1,185
20.846039999769967,32.800479857707735,0,0,7990,8481,100,1,186
20.846039999769967,32.70054890208279,0,0,8006,8481,100,1,187
20.354989307621146,32.70054890208279,0,0,7990,8481,100,1,188
20.354989307621146,32.87859179873122,0,0,8006,8481,100,1,189
20.36703479106794,32.9005961087108,0,0,7990,8481,100,1,190
20.44387915903516,32.9005961087108,0,0,8006,8481,100,1,191
20.36703479106794,32.82302651418747,0,0,7990,8481,100,1,192
19.88720732349943,32.72267293694737,0,0,8006,8481,100,1,193
19.876084780006668,32.72267293694737,0,0,7990,8481,100,1,194
19.80982726496308,32.72267293694737,0,0,8006,8481,100,1,195
19.80982726496308,32.62250363997289,0,0,7990,8481,100,1,196
20.011759288686783,32.522520326012625,0,0,7405,8481,100,1,197
20.011759288686783,32.522520326012625,0,0,5813,8481,100,1,198
19.846934414898357,32.63371719271443,0,0,4172,8481,100,1,199
19.846934414898357,32.8116325861715,0,0,2599,8481,100,1,200
19.91064540744189,32.83466139066029,0,0,1108,8481,100,1,201
20.10056678692711,32.9119592380894,0,0,62,8481,100,1,202
20.830797503713505,32.9119592380894,0,0,0,8481,100,1,203
20.830797503713505,32.9119592380894,0,0,0,8481,100,1,204
20.830797503713505,32.800479857707735,0,0,0,8481,100,1,205
20.830797503713505,32.71148987839605,0,0,0,8481,100,1,206
20.830797503713505,32.70054890208279,0,0,0,8481,100,1,207
20.354989307621146,32.70054890208279,0,0,0,8481,100,1,208
20.354989307621146,32.78956857491405,0,0,0,8481,100,1,209
20.44387915903516,32.8116325861715,0,0,0,8481,100,1,210
20.468251281209994,32.8116325861715,0,0,0,8481,100,1,211
20.468251281209994,32.8116325861715,0,0,0,8481,100,1,212
19.976165997210366,32.72267293694737,0,0,0,8481,100,1,213
19.89872776286985,32.72267293694737,0,0,0,8481,100,1,214
19.876084780006668,32.72267293694737,0,0,0,8481,100,1,215
19.89872776286985,32.71148987839605,0,0,0,8481,100,1,216
20.011759288686783,32.611532809316785,0,0,0,8481,100,1,217
20.011759288686783,32.54476538549363,0,0,0,8481,100,1,218
19.935669439033383,32.54476538549363,0,0,0,8481,100,1,219
19.92295954440724,32.73409782962668,0,0,0,8481,100,1,220
19.935669439033383,32.83466139066029,0,0,0,8481,100,1,221
20.113164448441207,32.9119592380894,0,0,406,8481,100,1,222
20.742402748078437,32.9119592380894,0,0,1324,8481,100,1,223
20.742402748078437,32.9119592380894,0,0,2440,8481,100,1,224
20.742402748078437,32.800479857707735,0,0,3654,8481,100,1,225
20.830797503713505,32.800479857707735,0,0,4943,8481,100,1,226
20.830797503713505,32.70054890208279,0,0,6240,8481,100,1,227
20.354989307621146,32.70054890208279,0,0,7551,8481,100,1,228
20.354989307621146,32.87859179873122,0,0,7990,8481,100,1,229
20.36703479106794,32.87859179873122,0,0,7990,8481,100,1,230
20.44387915903516,32.72267293694737,0,0,8006,8481,100,1,231
20.36703479106794,32.72267293694737,0,0,7990,8481,100,1,232
19.88720732349943,32.72267293694737,0,0,8006,8481,100,1,233
19.88720732349943,32.63371719271443,0,0,7990,8481,100,1,234
19.876084780006668,32.63371719271443,0,0,8006,8481,100,1,235
19.89872776286985,32.62250363997289,0,0,7990,8481,100,1,236
20.011759288686783,32.611532809316785,0,0,8006,8481,100,1,237
20.011759288686783,32.5335211731347,0,0,7990,8481,100,1,238
19.935669439033383,32.5335211731347,0,0,8006,8481,100,1,239
19.92295954440724,32.72267293694737,0,0,7990,8481,100,1,240
19.92295954440724,32.745764303308505,0,0,8006,8481,100,1,241
20.011759288686783,32.9119592380894,0,0,7990,8481,100,1,242
20.773393375498348,32.9119592380894,0,0,8006,8481,100,1,243
20.773393375498348,32.83466139066029,0,0,7990,8481,100,1,244
20.773393375498348,32.800479857707735,0,0,8006,8481,100,1,245
20.830797503713505,32.800479857707735,0,0,7990,8481,100,1,246
20.830797503713505,32.70054890208279,0,0,8006,8481,100,1,247
20.354989307621146,32.70054890208279,0,0,7990,8481,100,1,248
20.354989307621146,32.86795110145776,0,0,7990,8481,100,1,249
20.354989307621146,32.86795110145776,0,0,7980,8481,100,1,250
20.36703479106794,32.8116325861715,0,0,6953,8481,100,1,251
20.36703479106794,32.8116325861715,0,0,5422,8481,100,1,252
19.890024322329317,32.8116325861715,0,0,3884,8481,100,1,253
19.890024322329317,32.71148987839605,0,0,2426,8481,100,1,254
19.876084780006668,32.71148987839605,0,0,1055,8481,100,1,255
19.89872776286985,32.71148987839605,0,0,70,8481,100,1,0
20.011759288686783,32.522520326012625,0,0,0,8481,100,1,1
20.011759288686783,32.522520326012625,0,0,0,8481,100,1,2
19.935669439033383,32.5335211731347,0,0,0,8481,100,1,3
19.92295954440724,32.757672099879414,0,0,0,8481,100,1,4
19.92295954440724,32.82302651418747,0,0,0,8481,100,1,5
20.011759288686783,32.9119592380894,0,0,0,8481,100,1,6
20.757710152971708,33.012468157101615,0,0,0,8481,100,1,7
20.757710152971708,33.012468157101615,0,0,0,8481,100,1,8
20.757710152971708,32.800479857707735,0,0,0,8481,100,1,9
20.72699603978729,32.71073874224796,0,0,0,8481,100,1,10
20.72699603978729,32.68909961182623,0,0,0,8481,100,1,11
20.354989307621146,32.68909961182623,0,0,0,8481,100,1,12
20.354521907074126,32.87859179873122,0,0,0,8481,100,1,13
20.354989307621146,32.87859179873122,0,0,0,8481,100,1,14
20.37946773482796,32.8116325861715,0,0,0,8481,100,1,15
20.37946773482796,32.8116325861715,0,0,0,8481,100,1,16
19.88720732349943,32.73409782962668,0,0,278,8481,100,1,17
19.88720732349943,32.72267293694737,0,0,1058,8481,100,1,18
19.88720732349943,32.72267293694737,0,0,2017,8481,100,1,19
19.89872776286985,32.62250363997289,0,0,3092,8481,100,1,20
19.999499827774223,32.522520326012625,0,0,4214,8481,100,1,21
19.999499827774223,32.522520326012625,0,0,5387,8481,100,1,22
19.846934414898357,32.5335211731347,0,0,6554,8481,100,1,23
19.846934414898357,32.73409782962668,0,0,7704,8481,100,1,24
19.91064540744189,32.84653695954418,0,0,7990,8481,100,1,25
19.92295954440724,32.9119592380894,0,0,7990,8481,100,1,26
20.861177783563964,33.00013818705342,0,0,8006,8481,100,1,27
20.861177783563964,33.00013818705342,0,0,7990,8481,100,1,28
20.861177783563964,32.80698615719295,0,0,8006,8481,100,1,29
20.7274719934516,32.800479857707735,0,0,7990,8481,100,1,30
20.7274719934516,32.611532809316785,0,0,8006,8481,100,1,31
20.354989307621146,32.611532809316785,0,0,7990,8481,100,1,32
20.354989307621146,32.87859179873122,0,0,8006,8481,100,1,33
20.354989307621146,32.87859179873122,0,0,7990,8481,100,1,34
20.37946773482796,32.8116325861715,0,0,8006,8481,100,1,35
20.37946773482796,32.8116325861715,0,0,7990,8481,100,1,36
19.875628376283814,32.81087915050089,0,0,8006,8481,100,1,37
19.875628376283814,32.721921544008794,0,0,7990,8481,100,1,38
19.875628376283814,32.71148987839605,0,0,8006,8481,100,1,39
19.8982708392085,32.6217545471674,0,0,7990,8481,100,1,40
19.999499827774223,32.522520326012625,0,0,8006,8481,100,1,41
19.999499827774223,32.522520326012625,0,0,7990,8481,100,1,42
19.846934414898357,32.62250363997289,0,0,8006,8481,100,1,43
19.846934414898357,32.8116325861715,0,0,7990,8481,100,1,44
19.91064540744189,32.84653695954418,0,0,7990,8481,100,1,45
19.92295954440724,32.9119592380894,0,0,7824,8481,100,1,46
20.93438126757884,33.00089596867613,0,0,6479,8481,100,1,47
20.93438126757884,33.00089596867613,0,0,4932,8481,100,1,48
20.93438126757884,32.800479857707735,0,0,3386,8481,100,1,49
20.815452167686036,32.800479857707735,0,0,1926,8481,100,1,50
20.815452167686036,32.68909961182623,0,0,567,8481,100,1,51
20.354989307621146,32.68909961182623,0,0,0,8481,100,1,52
20.351639651893123,32.87859179873122,0,0,0,8481,100,1,53
20.354989307621146,32.87859179873122,0,0,0,8481,100,1,54
20.378999772196135,32.81087915050089,0,0,0,8481,100,1,55
20.378999772196135,32.81087915050089,0,0,0,8481,100,1,56
19.88720732349943,32.81087915050089,0,0,0,8481,100,1,57
19.88720732349943,32.72267293694737,0,0,0,8481,100,1,58
19.88720732349943,32.72267293694737,0,0,0,8481,100,1,59
19.91064540744189,32.71148987839605,0,0,0,8481,100,1,60
19.91064540744189,32.611532809316785,0,0,0,8481,100,1,61
19.91064540744189,32.532774123585185,0,0,0,8481,100,1,62
19.846934414898357,32.532774123585185,0,0,0,8481,100,1,63
19.846934414898357,32.8116325861715,0,0,0,8481,100,1,64
19.91064540744189,32.83466139066029,0,0,0,8481,100,1,65
19.92295954440724,32.9119592380894,0,0,0,8481,100,1,66
20.86165681844142,33.00089596867613,0,0,0,8481,100,1,67
20.86165681844142,33.00089596867613,0,0,0,8481,100,1,68
20.86165681844142,32.800479857707735,0,0,0,8481,100,1,69
20.712443084122885,32.799726678131165,0,0,369,8481,100,1,70
20.712443084122885,32.69979801716639,0,0,1258,8481,100,1,71
20.354989307621146,32.69979801716639,0,0,2341,8481,100,1,72
20.354521907074126,32.87859179873122,0,0,3520,8481,100,1,73
20.354989307621146,32.899840630219224,0,0,4767,8481,100,1,74
20.480545109909283,32.899840630219224,0,0,6019,8481,100,1,75
20.480545109909283,32.899840630219224,0,0,7304,8481,100,1,76
19.890024322329317,32.8116325861715,0,0,7988,8481,100,1,77
19.890024322329317,32.72267293694737,0,0,7990,8481,100,1,78
19.88720732349943,32.71148987839605,0,0,8006,8481,100,1,79
19.91064540744189,32.71148987839605,0,0,7990,8481,100,1,80
19.91064540744189,32.6008049457888,0,0,8006,8481,100,1,81
19.91064540744189,32.54476538549363,0,0,7990,8481,100,1,82
19.846934414898357,32.54476538549363,0,0,8006,8481,100,1,83
19.846934414898357,32.8116325861715,0,0,7990,8481,100,1,84
19.92295954440724,32.83466139066029,0,0,8006,8481,100,1,85
19.92295954440724,32.9119592380894,0,0,7990,8481,100,1,86
20.949932233655787,33.089836673640924,0,0,8006,8481,100,1,87
20.949932233655787,33.089836673640924,0,0,7990,8481,100,1,88
20.949932233655787,32.799726678131165,0,0,8006,8481,100,1,89
20.800961098586217,32.78881564588734,0,0,7990,8481,100,1,90
20.800961098586217,32.69979801716639,0,0,8006,8481,100,1,91
20.354989307621146,32.69979801716639,0,0,7990,8481,100,1,92
20.354521907074126,32.86795110145776,0,0,8006,8481,100,1,93
20.354989307621146,32.899840630219224,0,0,7990,8481,100,1,94
20.378999772196135,32.899840630219224,0,0,8006,8481,100,1,95
20.378999772196135,32.82302651418747,0,0,7990,8481,100,1,96
19.88720732349943,32.81087915050089,0,0,8006,8481,100,1,97
19.88720732349943,32.71148987839605,0,0,7990,8481,100,1,98
19.88720732349943,32.71148987839605,0,0,7545,8481,100,1,99
19.91064540744189,32.6217545471674,0,0,6021,8481,100,1,100
19.91064540744189,32.611532809316785,0,0,4409,8481,100,1,101
19.91064540744189,32.5335211731347,0,0,2858,8481,100,1,102
19.860097863573586,32.5335211731347,0,0,1379,8481,100,1,103
19.860097863573586,32.8116325861715,0,0,173,8481,100,1,104
19.91064540744189,32.83466139066029,0,0,0,8481,100,1,105
20.024412820421567,32.9005961087108,0,0,0,8481,100,1,106
20.94945117175799,33.00013818705342,0,0,0,8481,100,1,107
20.94945117175799,33.00013818705342,0,0,0,8481,100,1,108
20.94945117175799,32.8116325861715,0,0,0,8481,100,1,109
20.71291870360791,32.799726678131165,0,0,0,8481,100,1,110
20.71291870360791,32.70054890208279,0,0,0,8481,100,1,111
20.354989307621146,32.70054890208279,0,0,0,8481,100,1,112
20.354521907074126,32.87859179873122,0,0,0,8481,100,1,113
20.354989307621146,32.888718324452206,0,0,0,8481,100,1,114
20.46778127988989,32.888718324452206,0,0,0,8481,100,1,115
20.46778127988989,32.82227281688429,0,0,0,8481,100,1,116
19.88675066437566,32.81087915050089,0,0,0,8481,100,1,117
19.88675066437566,32.71148987839605,0,0,0,8481,100,1,118
19.88675066437566,32.71073874224796,0,0,0,8481,100,1,119
19.89872776286985,32.71073874224796,0,0,0,8481,100,1,120
19.910188210122143,32.52177352906958,0,0,0,8481,100,1,121
19.935669439033383,32.52177352906958,0,0,0,8481,100,1,122
19.935669439033383,32.63371719271443,0,0,176,8481,100,1,123
19.92295954440724,32.8116325861715,0,0,983,8481,100,1,124
19.89872776286985,32.833907426191765,0,0,2035,8481,100,1,125
19.92295954440724,32.9119592380894,0,0,3230,8481,100,1,126
20.94945117175799,33.00013818705342,0,0,4486,8481,100,1,127
20.94945117175799,33.00013818705342,0,0,5799,8481,100,1,128
20.94945117175799,32.799726678131165,0,0,7105,8481,100,1,129
20.815452167686036,32.799726678131165,0,0,7987,8481,100,1,130
20.815452167686036,32.78881564588734,0,0,7990,8481,100,1,131
20.354521907074126,32.78881564588734,0,0,7990,8481,100,1,132
20.354521907074126,32.877836825512645,0,0,8006,8481,100,1,133
20.378999772196135,32.877836825512645,0,0,7990,8481,100,1,134
20.443409717358833,32.81087915050089,0,0,8006,8481,100,1,135
20.378999772196135,32.81087915050089,0,0,7990,8481,100,1,136
19.88675066437566,32.81087915050089,0,0,8006,8481,100,1,137
19.88675066437566,32.71073874224796,0,0,7990,8481,100,1,138
19.875628376283814,32.71073874224796,0,0,8006,8481,100,1,139
19.8982708392085,32.71073874224796,0,0,7990,8481,100,1,140
19.910188210122143,32.61078396842851,0,0,8006,8481,100,1,141
19.910188210122143,32.532774123585185,0,0,7990,8481,100,1,142
19.846478680539477,32.532774123585185,0,0,8006,8481,100,1,143
19.846478680539477,32.721921544008794,0,0,7990,8481,100,1,144
19.910188210122143,32.833907426191765,0,0,8006,8481,100,1,145
20.01129976954399,32.911203498672464,0,0,7990,8481,100,1,146
20.861177783563964,33.00013818705342,0,0,8006,8481,100,1,147
20.861177783563964,33.00013818705342,0,0,7990,8481,100,1,148
20.861177783563964,32.799726678131165,0,0,8006,8481,100,1,149
20.72699603978729,32.78881564588734,0,0,7990,8481,100,1,150
20.72699603978729,32.69979801716639,0,0,7990,8481,100,1,151
20.354521907074126,32.69979801716639,0,0,7576,8481,100,1,152
20.342864839878604,32.86719637257572,0,0,6002,8481,100,1,153
20.354521907074126,32.86719637257572,0,0,4381,8481,100,1,154
20.366567113927037,32.81087915050089,0,0,2789,8481,100,1,155
20.366567113927037,32.81087915050089,0,0,1295,8481,100,1,156
19.88675066437566,32.81087915050089,0,0,124,8481,100,1,157
19.88675066437566,32.71073874224796,0,0,0,8481,100,1,158
19.875628376283814,32.71073874224796,0,0,0,8481,100,1,159
19.8982708392085,32.71073874224796,0,0,0,8481,100,1,160
19.91064540744189,32.6008049457888,0,0,0,8481,100,1,161
19.935211667100415,32.6008049457888,0,0,0,8481,100,1,162
19.935211667100415,32.6217545471674,0,0,0,8481,100,1,163
19.922502064324668,32.74501238013545,0,0,0,8481,100,1,164
19.910188210122143,32.81087915050089,0,0,0,8481,100,1,165
19.922502064324668,32.899840630219224,0,0,0,8481,100,1,166
20.933900562769416,33.00703556259678,0,0,0,8481,100,1,167
20.933900562769416,33.00703556259678,0,0,0,8481,100,1,168
20.933900562769416,32.888718324452206,0,0,0,8481,100,1,169
20.72699603978729,32.799726678131165,0,0,0,8481,100,1,170
20.72699603978729,32.78881564588734,0,0,0,8481,100,1,171
20.354521907074126,32.78881564588734,0,0,0,8481,100,1,172
20.354521907074126,32.86719637257572,0,0,0,8481,100,1,173
20.354521907074126,32.86719637257572,0,0,0,8481,100,1,174
20.378999772196135,32.81087915050089,0,0,12,8481,100,1,175
20.378999772196135,32.81087915050089,0,0,533,8481,100,1,176
19.875628376283814,32.721921544008794,0,0,1488,8481,100,1,177
19.875628376283814,32.721921544008794,0,0,2627,8481,100,1,178
19.875628376283814,32.721921544008794,0,0,3851,8481,100,1,179
19.910188210122143,32.71073874224796,0,0,5141,8481,100,1,180
19.910188210122143,32.51101654123584,0,0,6439,8481,100,1,181
19.935211667100415,32.51101654123584,0,0,7703,8481,100,1,182
19.935211667100415,32.6217545471674,0,0,7990,8481,100,1,183
19.922502064324668,32.81087915050089,0,0,7990,8481,100,1,184
19.910188210122143,32.84653695954418,0,0,8006,8481,100,1,185
19.922502064324668,32.911203498672464,0,0,7990,8481,100,1,186
20.94945117175799,33.01171010975304,0,0,8006,8481,100,1,187
20.94945117175799,33.01171010975304,0,0,7990,8481,100,1,188
20.94945117175799,32.799726678131165,0,0,8006,8481,100,1,189
20.815452167686036,32.78881564588734,0,0,7990,8481,100,1,190
20.815452167686036,32.69979801716639,0,0,8006,8481,100,1,191
20.354521907074126,32.69979801716639,0,0,7990,8481,100,1,192
20.354521907074126,32.86719637257572,0,0,8006,8481,100,1,193
20.354521907074126,32.888718324452206,0,0,7990,8481,100,1,194
20.366567113927037,32.888718324452206,0,0,8006,8481,100,1,195
20.366567113927037,32.82227281688429,0,0,7990,8481,100,1,196
19.88675066437566,32.81087915050089,0,0,8006,8481,100,1,197
19.88675066437566,32.721921544008794,0,0,7990,8481,100,1,198
19.88675066437566,32.71073874224796,0,0,8006,8481,100,1,199
19.8982708392085,32.71073874224796,0,0,7990,8481,100,1,200
19.8982708392085,32.60005635123861,0,0,8006,8481,100,1,201
19.935211667100415,32.60005635123861,0,0,7990,8481,100,1,202
19.935211667100415,32.6217545471674,0,0,7990,8481,100,1,203
19.922502064324668,32.81087915050089,0,0,7987,8481,100,1,204
19.846478680539477,32.84578272238343,0,0,6971,8481,100,1,205
19.922502064324668,32.899840630219224,0,0,5383,8481,100,1,206
20.87716771767568,33.01171010975304,0,0,3776,8481,100,1,207
20.87716771767568,33.01171010975304,0,0,2250,8481,100,1,208
20.87716771767568,32.799726678131165,0,0,818,8481,100,1,209
20.72699603978729,32.799726678131165,0,0,9,8481,100,1,210
20.712443084122885,32.78881564588734,0,0,0,8481,100,1,211
20.354521907074126,32.77814629487771,0,0,0,8481,100,1,212
20.354521907074126,32.77814629487771,0,0,0,8481,100,1,213
20.354521907074126,32.81087915050089,0,0,0,8481,100,1,214
20.354521907074126,32.81087915050089,0,0,0,8481,100,1,215
20.290226087391712,32.81087915050089,0,0,0,8481,100,1,216
19.88675066437566,32.81087915050089,0,0,0,8481,100,1,217
19.88675066437566,32.721921544008794,0,0,0,8481,100,1,218
19.88675066437566,32.721921544008794,0,0,0,8481,100,1,219
19.8982708392085,32.71073874224796,0,0,0,8481,100,1,220
19.8982708392085,32.61078396842851,0,0,0,8481,100,1,221
19.935211667100415,32.532774123585185,0,0,0,8481,100,1,222
19.935211667100415,32.532774123585185,0,0,0,8481,100,1,223
19.935211667100415,32.82227281688429,0,0,0,8481,100,1,224
19.910188210122143,32.833907426191765,0,0,0,8481,100,1,225
19.935211667100415,32.899840630219224,0,0,0,8481,100,1,226
20.96537378136552,33.100617679622005,0,0,0,8481,100,1,227
20.96537378136552,33.100617679622005,0,0,0,8481,100,1,228
20.96537378136552,32.899840630219224,0,0,210,8481,100,1,229
20.800961098586217,32.799726678131165,0,0,1032,8481,100,1,230
20.800961098586217,32.78881564588734,0,0,2068,8481,100,1,231
20.354521907074126,32.78881564588734,0,0,3229,8481,100,1,232
20.354521907074126,32.86719637257572,0,0,4436,8481,100,1,233
20.354521907074126,32.86719637257572,0,0,5686,8481,100,1,234
20.354521907074126,32.81087915050089,0,0,6916,8481,100,1,235
20.290226087391712,32.81087915050089,0,0,7922,8481,100,1,236
19.88675066437566,32.799726678131165,0,0,7990,8481,100,1,237
19.88675066437566,32.721921544008794,0,0,7990,8481,100,1,238
19.88675066437566,32.71073874224796,0,0,8006,8481,100,1,239
19.8982708392085,32.69979801716639,0,0,7990,8481,100,1,240
19.8982708392085,32.51101654123584,0,0,8006,8481,100,1,241
19.935211667100415,32.51101654123584,0,0,7990,8481,100,1,242
19.935211667100415,32.6217545471674,0,0,8006,8481,100,1,243
19.935211667100415,32.81087915050089,0,0,7990,8481,100,1,244
19.910188210122143,32.833907426191765,0,0,8006,8481,100,1,245
19.935211667100415,32.899840630219224,0,0,7990,8481,100,1,246
20.981667544678324,33.100617679622005,0,0,8006,8481,100,1,247
20.981667544678324,33.100617679622005,0,0,7990,8481,100,1,248
20.981667544678324,32.888718324452206,0,0,8006,8481,100,1,249
20.800483051214897,32.799726678131165,0,0,7990,8481,100,1,250
20.800483051214897,32.788062093825296,0,0,8006,8481,100,1,251
20.35117206326764,32.77275183408637,0,0,7990,8481,100,1,252
20.35117206326764,32.77275183408637,0,0,8006,8481,100,1,253
20.354521907074126,32.89908452658269,0,0,7990,8481,100,1,254
20.378531422333598,32.89908452658269,0,0,8006,8481,100,1,255
20.378531422333598,32.82227281688429,0,0,7990,8481,100,1,0
19.88675066437566,32.81087915050089,0,0,7990,8481,100,1,1
19.88675066437566,32.71073874224796,0,0,7750,8481,100,1,2
19.88675066437566,32.71073874224796,0,0,6308,8481,100,1,3
19.8982708392085,32.69904651090615,0,0,4719,8481,100,1,4
19.8982708392085,32.60005635123861,0,0,3140,8481,100,1,5
19.935211667100415,32.532774123585185,0,0,1645,8481,100,1,6
19.935211667100415,32.532774123585185,0,0,312,8481,100,1,7
19.935211667100415,32.81087915050089,0,0,0,8481,100,1,8
19.846478680539477,32.833907426191765,0,0,0,8481,100,1,9
19.935211667100415,32.899840630219224,0,0,0,8481,100,1,10
20.964891955464434,33.088316397060744,0,0,0,8481,100,1,11
20.964891955464434,33.088316397060744,0,0,0,8481,100,1,12
20.964891955464434,32.799726678131165,0,0,0,8481,100,1,13
20.711967071071225,32.78881564588734,0,0,0,8481,100,1,14
20.711967071071225,32.788062093825296,0,0,0,8481,100,1,15
20.354521907074126,32.77814629487771,0,0,0,8481,100,1,16
20.354521907074126,32.77814629487771,0,0,0,8481,100,1,17
20.354521907074126,32.888718324452206,0,0,0,8481,100,1,18
20.378999772196135,32.888718324452206,0,0,0,8481,100,1,19
20.378999772196135,32.82227281688429,0,0,0,8481,100,1,20
19.88675066437566,32.81012509137573,0,0,0,8481,100,1,21
19.88675066437566,32.798972875311954,0,0,0,8481,100,1,22
19.886293627374624,32.71073874224796,0,0,0,8481,100,1,23
19.910188210122143,32.69979801716639,0,0,0,8481,100,1,24
19.910188210122143,32.51101654123584,0,0,0,8481,100,1,25
19.910188210122143,32.51101654123584,0,0,0,8481,100,1,26
19.846478680539477,32.532774123585185,0,0,408,8481,100,1,27
19.846478680539477,32.798972875311954,0,0,1339,8481,100,1,28
19.8982708392085,32.899840630219224,0,0,2461,8481,100,1,29
19.934753516369355,32.899840630219224,0,0,3706,8481,100,1,30
21.053108368451774,33.088316397060744,0,0,4995,8481,100,1,31
21.053108368451774,33.088316397060744,0,0,6325,8481,100,1,32
21.053108368451774,32.888718324452206,0,0,7600,8481,100,1,33
20.74192645156733,32.798972875311954,0,0,7990,8481,100,1,34
20.711967071071225,32.798972875311954,0,0,8006,8481,100,1,35
20.354054119761514,32.798972875311954,0,0,7990,8481,100,1,36
20.354054119761514,32.86644101916902,0,0,8006,8481,100,1,37
20.354054119761514,32.887962476428335,0,0,7990,8481,100,1,38
20.378531422333598,32.887962476428335,0,0,8006,8481,100,1,39
20.378531422333598,32.82227281688429,0,0,7990,8481,100,1,40
19.886293627374624,32.81012509137573,0,0,8006,8481,100,1,41
19.886293627374624,32.71073874224796,0,0,7990,8481,100,1,42
19.897813537450986,32.709986984548145,0,0,8006,8481,100,1,43
19.897813537450986,32.69904651090615,0,0,7990,8481,100,1,44
19.897813537450986,32.51101654123584,0,0,8006,8481,100,1,45
19.934753516369355,32.51101654123584,0,0,7990,8481,100,1,46
19.934753516369355,32.53202645586552,0,0,8006,8481,100,1,47
19.934753516369355,32.709986984548145,0,0,7990,8481,100,1,48
19.90973063447979,32.83315283783112,0,0,8006,8481,100,1,49
20.010839870157312,32.89908452658269,0,0,7990,8481,100,1,50
21.053108368451774,33.00013818705342,0,0,8006,8481,100,1,51
21.053108368451774,33.00013818705342,0,0,7990,8481,100,1,52
21.053108368451774,32.887962476428335,0,0,8006,8481,100,1,53
20.74144976092937,32.788062093825296,0,0,7990,8481,100,1,54
20.711967071071225,32.788062093825296,0,0,7815,8481,100,1,55
20.354054119761514,32.77739298801853,0,0,6444,8481,100,1,56
20.354054119761514,32.77739298801853,0,0,4789,8481,100,1,57
20.354054119761514,32.798972875311954,0,0,3172,8481,100,1,58
20.378531422333598,32.81012509137573,0,0,1611,8481,100,1,59
20.378531422333598,32.81012509137573,0,0,265,8481,100,1,60
19.886293627374624,32.81012509137573,0,0,0,8481,100,1,61
19.886293627374624,32.709986984548145,0,0,0,8481,100,1,62
19.886293627374624,32.709986984548145,0,0,0,8481,100,1,63
19.886293627374624,32.709986984548145,0,0,0,8481,100,1,64
19.886293627374624,32.51101654123584,0,0,0,8481,100,1,65
19.934753516369355,32.51101654123584,0,0,0,8481,100,1,66
19.934753516369355,32.621004834501,0,0,0,8481,100,1,67
19.934753516369355,32.709986984548145,0,0,0,8481,100,1,68
19.90973063447979,32.83315283783112,0,0,0,8481,100,1,69
20.010839870157312,32.887962476428335,0,0,0,8481,100,1,70
20.964891955464434,33.00013818705342,0,0,0,8481,100,1,71
20.964891955464434,33.00013818705342,0,0,0,8481,100,1,72
20.964891955464434,32.899840630219224,0,0,0,8481,100,1,73
20.74192645156733,32.788062093825296,0,0,0,8481,100,1,74
20.711967071071225,32.788062093825296,0,0,0,8481,100,1,75
20.354054119761514,32.788062093825296,0,0,0,8481,100,1,76
20.35117206326764,32.86644101916902,0,0,0,8481,100,1,77
20.354054119761514,32.86644101916902,0,0,0,8481,100,1,78
20.378531422333598,32.81012509137573,0,0,0,8481,100,1,79
20.378531422333598,32.798972875311954,0,0,0,8481,100,1,80
19.96134888691346,32.732593897081024,0,0,435,8481,100,1,81
19.96134888691346,32.709986984548145,0,0,1366,8481,100,1,82
19.96134888691346,32.709986984548145,0,0,2478,8481,100,1,83
19.808917123980958,32.709986984548145,0,0,3711,8481,100,1,84
19.808917123980958,32.59930713723981,0,0,4993,8481,100,1,85
19.846022569068563,32.53202645586552,0,0,6327,8481,100,1,86
19.846022569068563,32.53202645586552,0,0,7605,8481,100,1,87
19.846022569068563,32.709986984548145,0,0,7990,8481,100,1,88
19.846022569068563,32.83315283783112,0,0,8006,8481,100,1,89
19.922044205685506,32.88330566627799,0,0,7990,8481,100,1,90
20.961923406660933,32.99470719196429,0,0,8006,8481,100,1,91
20.961923406660933,32.99470719196429,0,0,7990,8481,100,1,92
20.97821448842894,32.894426141592426,0,0,8006,8481,100,1,93
20.8268910293377,32.798972875311954,0,0,7990,8481,100,1,94
20.711967071071225,32.69441645053656,0,0,8006,8481,100,1,95
20.265175252558656,32.77739298801853,0,0,7990,8481,100,1,96
20.265175252558656,32.77739298801853,0,0,8006,8481,100,1,97
20.35117206326764,32.798972875311954,0,0,7990,8481,100,1,98
20.378531422333598,32.80547930270247,0,0,8006,8481,100,1,99
20.378531422333598,32.80547930270247,0,0,7990,8481,100,1,100
19.872357346341655,32.80547930270247,0,0,8006,8481,100,1,101
19.872357346341655,32.709986984548145,0,0,7990,8481,100,1,102
19.886293627374624,32.709986984548145,0,0,8006,8481,100,1,103
19.886293627374624,32.709986984548145,0,0,7990,8481,100,1,104
19.886293627374624,32.50566604330223,0,0,8006,8481,100,1,105
19.846022569068563,32.50566604330223,0,0,7990,8481,100,1,106
19.846022569068563,32.53202645586552,0,0,7990,8481,100,1,107
19.846022569068563,32.70535537504919,0,0,7401,8481,100,1,108
19.84321244790615,32.82850378851672,0,0,5767,8481,100,1,109
19.919223320149065,32.89908452658269,0,0,4116,8481,100,1,110
20.946003417515595,33.00627721021564,0,0,2484,8481,100,1,111
20.946003417515595,33.00627721021564,0,0,940,8481,100,1,112
20.97821448842894,32.89908452658269,0,0,14,8481,100,1,113
20.9182420302473,32.798972875311954,0,0,0,8481,100,1,114
20.711967071071225,32.788062093825296,0,0,0,8481,100,1,115
20.354054119761514,32.77739298801853,0,0,0,8481,100,1,116
20.354054119761514,32.77739298801853,0,0,0,8481,100,1,117
20.354054119761514,32.887962476428335,0,0,0,8481,100,1,118
20.366099049791668,32.887962476428335,0,0,0,8481,100,1,119
20.366099049791668,32.821518495910055,0,0,0,8481,100,1,120
19.886293627374624,32.71653633640131,0,0,0,8481,100,1,121
19.886293627374624,32.709986984548145,0,0,0,8481,100,1,122
19.897813537450986,32.709986984548145,0,0,0,8481,100,1,123
19.897813537450986,32.69904651090615,0,0,0,8481,100,1,124
19.897813537450986,32.510269373548596,0,0,0,8481,100,1,125
19.846022569068563,32.510269373548596,0,0,0,8481,100,1,126
19.846022569068563,32.52102611416541,0,0,0,8481,100,1,127
19.846022569068563,32.721169529305996,0,0,0,8481,100,1,128
19.808917123980958,32.73962337235546,0,0,0,8481,100,1,129
19.934753516369355,32.81012509137573,0,0,0,8481,100,1,130
20.861177783563964,33.01171010975304,0,0,0,8481,100,1,131
20.9182420302473,33.01171010975304,0,0,0,8481,100,1,132
20.981185344314213,32.89908452658269,0,0,0,8481,100,1,133
20.9182420302473,32.79432866574999,0,0,436,8481,100,1,134
20.711967071071225,32.788062093825296,0,0,1384,8481,100,1,135
20.354054119761514,32.77739298801853,0,0,2527,8481,100,1,136
20.35117206326764,32.77739298801853,0,0,3766,8481,100,1,137
20.354054119761514,32.894426141592426,0,0,5073,8481,100,1,138
20.375645899946964,32.894426141592426,0,0,6382,8481,100,1,139
20.375645899946964,32.82850378851672,0,0,7667,8481,100,1,140
19.886293627374624,32.80547930270247,0,0,7990,8481,100,1,141
19.886293627374624,32.709986984548145,0,0,7990,8481,100,1,142
19.886293627374624,32.709986984548145,0,0,8006,8481,100,1,143
19.808917123980958,32.709986984548145,0,0,7990,8481,100,1,144
19.808917123980958,32.50566604330223,0,0,8006,8481,100,1,145
19.846022569068563,32.50566604330223,0,0,7990,8481,100,1,146
19.846022569068563,32.53202645586552,0,0,8006,8481,100,1,147
19.846022569068563,32.721169529305996,0,0,7990,8481,100,1,148
19.84321244790615,32.82850378851672,0,0,8006,8481,100,1,149
19.934753516369355,32.89908452658269,0,0,7990,8481,100,1,150
20.756756462540558,33.01095143513383,0,0,8006,8481,100,1,151
20.997849014363407,33.01095143513383,0,0,7990,8481,100,1,152
21.00665434821741,32.89908452658269,0,0,8006,8481,100,1,153
21.00665434821741,32.798972875311954,0,0,7990,8481,100,1,154
20.62346105220382,32.78341942918841,0,0,8006,8481,100,1,155
20.354054119761514,32.77739298801853,0,0,7990,8481,100,1,156
20.354054119761514,32.77739298801853,0,0,8006,8481,100,1,157
20.354054119761514,32.894426141592426,0,0,7990,8481,100,1,158
20.354054119761514,32.894426141592426,0,0,8006,8481,100,1,159
20.286886825064578,32.816871093974136,0,0,7990,8481,100,1,160
19.88347780398383,32.80547930270247,0,0,7990,8481,100,1,161
19.88347780398383,32.79432866574999,0,0,7668,8481,100,1,162
19.897813537450986,32.709986984548145,0,0,6143,8481,100,1,163
19.897813537450986,32.709986984548145,0,0,4521,8481,100,1,164
19.897813537450986,32.510269373548596,0,0,2911,8481,100,1,165
19.846022569068563,32.510269373548596,0,0,1385,8481,100,1,166
19.846022569068563,32.53202645586552,0,0,151,8481,100,1,167
19.846022569068563,32.798972875311954,0,0,0,8481,100,1,168
19.846022569068563,32.83315283783112,0,0,0,8481,100,1,169
19.934753516369355,32.887962476428335,0,0,0,8481,100,1,170
20.860698352293713,32.99937977837997,0,0,0,8481,100,1,171
21.003679886018254,32.99937977837997,0,0,0,8481,100,1,172
21.003679886018254,32.894426141592426,0,0,0,8481,100,1,173
20.99736603211294,32.787307918861586,0,0,0,8481,100,1,174
20.62006667942741,32.78266557453687,0,0,0,8481,100,1,175
20.35117206326764,32.762326116483266,0,0,0,8481,100,1,176
20.350704088114608,32.762326116483266,0,0,0,8481,100,1,177
20.35117206326764,32.887962476428335,0,0,0,8481,100,1,178
20.378531422333598,32.887962476428335,0,0,0,8481,100,1,179
20.378531422333598,32.821518495910055,0,0,0,8481,100,1,180
19.88347780398383,32.79432866574999,0,0,0,8481,100,1,181
19.88347780398383,32.79432866574999,0,0,0,8481,100,1,182
19.897813537450986,32.788062093825296,0,0,0,8481,100,1,183
19.897813537450986,32.70535537504919,0,0,0,8481,100,1,184
19.897813537450986,32.510269373548596,0,0,0,8481,100,1,185
19.846022569068563,32.510269373548596,0,0,0,8481,100,1,186
19.846022569068563,32.53202645586552,0,0,0,8481,100,1,187
19.846022569068563,32.798972875311954,0,0,431,8481,100,1,188
19.846022569068563,32.83315283783112,0,0,1417,8481,100,1,189
19.934753516369355,32.88330566627799,0,0,2607,8481,100,1,190
20.769497666325165,33.00627721021564,0,0,3898,8481,100,1,191
21.021767945763834,33.00627721021564,0,0,5260,8481,100,1,192
21.08592754657663,32.89908452658269,0,0,6625,8481,100,1,193
21.021767945763834,32.87708122756722,0,0,7839,8481,100,1,194
20.62054084871502,32.79432866574999,0,0,7990,8481,100,1,195
20.35117206326764,32.77275183408637,0,0,7990,8481,100,1,196
20.35117206326764,32.77275183408637,0,0,8006,8481,100,1,197
20.35117206326764,32.798218449383775,0,0,7990,8481,100,1,198
20.3780626853234,32.798218449383775,0,0,8006,8481,100,1,199
20.3780626853234,32.798218449383775,0,0,7990,8481,100,1,200
19.894996082884823,32.71653633640131,0,0,8006,8481,100,1,201
19.894996082884823,32.70535537504919,0,0,7990,8481,100,1,202
19.897813537450986,32.70535537504919,0,0,8006,8481,100,1,203
19.897813537450986,32.70535537504919,0,0,7990,8481,100,1,204
19.897813537450986,32.49975647589569,0,0,8006,8481,100,1,205
19.846022569068563,32.49975647589569,0,0,7990,8481,100,1,206
19.846022569068563,32.53202645586552,0,0,8006,8481,100,1,207
19.846022569068563,32.79357456024058,0,0,7990,8481,100,1,208
19.846022569068563,32.83315283783112,0,0,8006,8481,100,1,209
19.93147249654106,32.882549514742664,0,0,7990,8481,100,1,210
20.76902007177589,33.0828704595379,0,0,8006,8481,100,1,211
21.018308016480074,33.0828704595379,0,0,7990,8481,100,1,212
21.082457057396944,32.8936697343418,0,0,8006,8481,100,1,213
21.018308016480074,32.798218449383775,0,0,7990,8481,100,1,214
20.53449278819079,32.788062093825296,0,0,7939,8481,100,1,215
20.262305780973662,32.798218449383775,0,0,6844,8481,100,1,216
20.262305780973662,32.861787256375,0,0,5275,8481,100,1,217
20.350704088114608,32.882549514742664,0,0,3748,8481,100,1,218
20.46394221730781,32.882549514742664,0,0,2278,8481,100,1,219
20.46394221730781,32.81611647010165,0,0,918,8481,100,1,220
19.972419794954735,32.80472494078419,0,0,32,8481,100,1,221
19.972419794954735,32.704603315480384,0,0,0,8481,100,1,222
19.972419794954735,32.69441645053656,0,0,0,8481,100,1,223
19.894538597497373,32.693664642508296,0,0,0,8481,100,1,224
19.894538597497373,32.59855730392526,0,0,0,8481,100,1,225
19.845566080566492,32.52027808143266,0,0,0,8481,100,1,226
19.845566080566492,32.52027808143266,0,0,0,8481,100,1,227
19.845566080566492,32.709986984548145,0,0,0,8481,100,1,228
19.842756153283265,32.81611647010165,0,0,0,8481,100,1,229
19.934753516369355,32.88720600360489,0,0,0,8481,100,1,230
20.842130666914052,32.983376821741345,0,0,0,8481,100,1,231
21.018791343536858,32.983376821741345,0,0,0,8481,100,1,232
21.082457057396944,32.894426141592426,0,0,0,8481,100,1,233
21.018791343536858,32.798972875311954,0,0,0,8481,100,1,234
20.520668484428313,32.78266557453687,0,0,0,8481,100,1,235
20.350704088114608,32.798972875311954,0,0,0,8481,100,1,236
20.350704088114608,32.850634377437174,0,0,0,8481,100,1,237
20.375177362018118,32.850634377437174,0,0,0,8481,100,1,238
20.439575226056483,32.80472494078419,0,0,347,8481,100,1,239
20.375177362018118,32.80472494078419,0,0,1198,8481,100,1,240
19.885836212577377,32.80472494078419,0,0,2234,8481,100,1,241
19.885836212577377,32.709986984548145,0,0,3390,8481,100,1,242
19.897355857678395,32.69829438343532,0,0,4601,8481,100,1,243
19.897355857678395,32.69829438343532,0,0,5869,8481,100,1,244
19.897355857678395,32.59930713723981,0,0,7135,8481,100,1,245
19.845566080566492,32.59930713723981,0,0,7988,8481,100,1,246
19.845566080566492,32.60928442782749,0,0,7990,8481,100,1,247
19.845566080566492,32.70923460542989,0,0,7990,8481,100,1,248
19.84321244790615,32.78266557453687,0,0,8006,8481,100,1,249
19.921585968570938,32.78266557453687,0,0,7990,8481,100,1,250
20.93293795991197,32.98728902865542,0,0,8006,8481,100,1,251
21.033790414390197,32.98728902865542,0,0,7990,8481,100,1,252
21.082457057396944,32.8936697343418,0,0,8006,8481,100,1,253
21.033790414390197,32.78266557453687,0,0,7990,8481,100,1,254
20.531585315997827,32.78266557453687,0,0,8006,8481,100,1,255
20.35117206326764,32.77275183408637,0,0,7990,8481,100,1,0
20.35117206326764,32.77275183408637,0,0,8006,8481,100,1,1
20.375177362018118,32.79357456024058,0,0,7990,8481,100,1,2
20.439575226056483,32.80472494078419,0,0,8006,8481,100,1,3
20.375177362018118,32.80472494078419,0,0,7990,8481,100,1,4
19.971960529209213,32.80472494078419,0,0,8006,8481,100,1,5
19.971960529209213,32.704603315480384,0,0,7990,8481,100,1,6
19.971960529209213,32.69829438343532,0,0,8006,8481,100,1,7
19.894538597497373,32.693664642508296,0,0,7990,8481,100,1,8
19.894538597497373,32.58882296248097,0,0,8006,8481,100,1,9
19.842756153283265,32.51567354577627,0,0,7990,8481,100,1,10
19.842756153283265,32.51567354577627,0,0,7990,8481,100,1,11
19.842756153283265,32.704603315480384,0,0,7373,8481,100,1,12
19.842756153283265,32.79357456024058,0,0,5806,8481,100,1,13
19.93147249654106,32.79357456024058,0,0,4246,8481,100,1,14
20.75334015094841,32.982618369070046,0,0,2719,8481,100,1,15
21.036769003710074,32.98728902865542,0,0,1301,8481,100,1,16
21.082457057396944,32.98728902865542,0,0,156,8481,100,1,17
21.036769003710074,32.78266557453687,0,0,0,8481,100,1,18
20.51729103006792,32.78266557453687,0,0,0,8481,100,1,19
20.350704088114608,32.76157274687239,0,0,0,8481,100,1,20
20.350704088114608,32.76157274687239,0,0,0,8481,100,1,21
20.350704088114608,32.882549514742664,0,0,0,8481,100,1,22
20.350704088114608,32.882549514742664,0,0,0,8481,100,1,23
20.27393558331464,32.81611647010165,0,0,0,8481,100,1,24
19.883020583459178,32.80472494078419,0,0,0,8481,100,1,25
19.883020583459178,32.704603315480384,0,0,0,8481,100,1,26
19.894538597497373,32.693664642508296,0,0,0,8481,100,1,27
19.894538597497373,32.693664642508296,0,0,0,8481,100,1,28
19.894538597497373,32.59855730392526,0,0,0,8481,100,1,29
19.842756153283265,32.526672076952906,0,0,0,8481,100,1,30
19.842756153283265,32.526672076952906,0,0,0,8481,100,1,31
19.842756153283265,32.704603315480384,0,0,0,8481,100,1,32
19.842756153283265,32.73887052479414,0,0,2,8481,100,1,33
19.918765277656355,32.882549514742664,0,0,431,8481,100,1,34
20.576752492382756,32.99394847875114,0,0,1290,8481,100,1,35
21.082457057396944,32.99394847875114,0,0,2330,8481,100,1,36
21.082457057396944,32.8936697343418,0,0,3469,8481,100,1,37
21.082457057396944,32.79357456024058,0,0,4685,8481,100,1,38
20.531585315997827,32.78266557453687,0,0,5918,8481,100,1,39
20.26183984930058,32.76157274687239,0,0,7196,8481,100,1,40
20.26183984930058,32.76157274687239,0,0,7978,8481,100,1,41
20.28642032815045,32.80472494078419,0,0,7990,8481,100,1,42
20.350704088114608,32.80472494078419,0,0,8006,8481,100,1,43
20.28642032815045,32.80472494078419,0,0,7990,8481,100,1,44
19.883020583459178,32.80472494078419,0,0,8006,8481,100,1,45
19.883020583459178,32.704603315480384,0,0,7990,8481,100,1,46
19.894538597497373,32.704603315480384,0,0,8006,8481,100,1,47
19.894538597497373,32.693664642508296,0,0,7990,8481,100,1,48
19.894538597497373,32.49440740823229,0,0,8006,8481,100,1,49
19.842756153283265,32.49440740823229,0,0,7990,8481,100,1,50
19.842756153283265,32.526672076952906,0,0,8006,8481,100,1,51
19.842756153283265,32.709986984548145,0,0,7990,8481,100,1,52
19.842756153283265,32.79357456024058,0,0,8006,8481,100,1,53
19.934753516369355,32.79357456024058,0,0,7990,8481,100,1,54
20.680787333406272,32.99394847875114,0,0,8006,8481,100,1,55
20.99439302184707,32.99394847875114,0,0,7990,8481,100,1,56
21.06884891117596,32.89832779793529,0,0,8006,8481,100,1,57
21.06884891117596,32.79357456024058,0,0,7990,8481,100,1,58
20.52019647805095,32.787307918861586,0,0,8006,8481,100,1,59
20.353585945766255,32.766212104247536,0,0,7990,8481,100,1,60
20.26183984930058,32.766212104247536,0,0,8004,8481,100,1,61
20.353585945766255,32.8936697343418,0,0,7990,8481,100,1,62
20.375177362018118,32.8936697343418,0,0,7173,8481,100,1,63
20.375177362018118,32.81611647010165,0,0,5662,8481,100,1,64
19.894538597497373,32.79357456024058,0,0,4144,8481,100,1,65
19.894538597497373,32.704603315480384,0,0,2711,8481,100,1,66
19.906453733115843,32.704603315480384,0,0,1373,8481,100,1,67
19.906453733115843,32.69829438343532,0,0,243,8481,100,1,68
19.906453733115843,32.49900893239675,0,0,0,8481,100,1,69
19.842756153283265,32.49900893239675,0,0,0,8481,100,1,70
19.842756153283265,32.51567354577627,0,0,0,8481,100,1,71
19.842756153283265,32.70923460542989,0,0,0,8481,100,1,72
19.80565681530408,32.827748897150435,0,0,0,8481,100,1,73
19.93429498692144,32.882549514742664,0,0,0,8481,100,1,74
20.56131687291052,32.99394847875114,0,0,0,8481,100,1,75
20.961441387282218,32.99394847875114,0,0,0,8481,100,1,76
20.997849014363407,32.8936697343418,0,0,0,8481,100,1,77
20.961441387282218,32.887962476428335,0,0,0,8481,100,1,78
20.52019647805095,32.787307918861586,0,0,0,8481,100,1,79
20.265175252558656,32.77739298801853,0,0,0,8481,100,1,80
20.265175252558656,32.77739298801853,0,0,0,8481,100,1,81
20.350704088114608,32.8936697343418,0,0,0,8481,100,1,82
20.375177362018118,32.8936697343418,0,0,2,8481,100,1,83
20.375177362018118,32.82076355139854,0,0,404,8481,100,1,84
19.894538597497373,32.80472494078419,0,0,1214,8481,100,1,85
19.894538597497373,32.704603315480384,0,0,2207,8481,100,1,86
19.909272680595972,32.704603315480384,0,0,3306,8481,100,1,87
19.909272680595972,32.69829438343532,0,0,4486,8481,100,1,88
19.909272680595972,32.50491857558913,0,0,5687,8481,100,1,89
19.845566080566492,32.50491857558913,0,0,6933,8481,100,1,90
19.845566080566492,32.531278170108294,0,0,7908,8481,100,1,91
19.845566080566492,32.70923460542989,0,0,7990,8481,100,1,92
19.845566080566492,32.79357456024058,0,0,8006,8481,100,1,93
19.93429498692144,32.79357456024058,0,0,7990,8481,100,1,94
20.56131687291052,32.99394847875114,0,0,8006,8481,100,1,95
21.01142328881872,32.99394847875114,0,0,7990,8481,100,1,96
21.082457057396944,32.8936697343418,0,0,8006,8481,100,1,97
21.082457057396944,32.78266557453687,0,0,7990,8481,100,1,98
20.428757981651458,32.78266557453687,0,0,8006,8481,100,1,99
20.350704088114608,32.76157274687239,0,0,7990,8481,100,1,100
20.350704088114608,32.76157274687239,0,0,8006,8481,100,1,101
20.350704088114608,32.882549514742664,0,0,7990,8481,100,1,102
20.375177362018118,32.882549514742664,0,0,8006,8481,100,1,103
20.375177362018118,32.81611647010165,0,0,7990,8481,100,1,104
19.983427280257562,32.80472494078419,0,0,8006,8481,100,1,105
19.983427280257562,32.704603315480384,0,0,7990,8481,100,1,106
19.99528944743514,32.693664642508296,0,0,8006,8481,100,1,107
19.99528944743514,32.693664642508296,0,0,7990,8481,100,1,108
19.99528944743514,32.49900893239675,0,0,8006,8481,100,1,109
19.842756153283265,32.49900893239675,0,0,7990,8481,100,1,110
19.842756153283265,32.51567354577627,0,0,8006,8481,100,1,111
19.842756153283265,32.79357456024058,0,0,7990,8481,100,1,112
19.842756153283265,32.827748897150435,0,0,7985,8481,100,1,113
19.93147249654106,32.88720600360489,0,0,7129,8481,100,1,114
20.56131687291052,32.982618369070046,0,0,5581,8481,100,1,115
20.99439302184707,32.982618369070046,0,0,4061,8481,100,1,116
21.17053444140013,32.90503047150575,0,0,2583,8481,100,1,117
20.99439302184707,32.79357456024058,0,0,1206,8481,100,1,118
20.414785427077444,32.78266557453687,0,0,123,8481,100,1,119
20.26183984930058,32.76157274687239,0,0,0,8481,100,1,120
20.26183984930058,32.76157274687239,0,0,0,8481,100,1,121
20.36274703569465,32.882549514742664,0,0,0,8481,100,1,122
20.375177362018118,32.882549514742664,0,0,0,8481,100,1,123
20.375177362018118,32.82076355139854,0,0,0,8481,100,1,124
19.983427280257562,32.79357456024058,0,0,0,8481,100,1,125
19.983427280257562,32.70923460542989,0,0,0,8481,100,1,126
19.99528944743514,32.693664642508296,0,0,0,8481,100,1,127
19.99528944743514,32.693664642508296,0,0,0,8481,100,1,128
19.99528944743514,32.49900893239675,0,0,0,8481,100,1,129
19.845566080566492,32.49900893239675,0,0,0,8481,100,1,130
19.845566080566492,32.52027808143266,0,0,0,8481,100,1,131
19.845566080566492,32.798218449383775,0,0,0,8481,100,1,132
19.842756153283265,32.798218449383775,0,0,0,8481,100,1,133
19.93429498692144,32.798218449383775,0,0,0,8481,100,1,134
20.56131687291052,32.982618369070046,0,0,0,8481,100,1,135
20.99736603211294,32.982618369070046,0,0,88,8481,100,1,136
21.082457057396944,32.89832779793529,0,0,744,8481,100,1,137
20.99736603211294,32.78266557453687,0,0,1686,8481,100,1,138
20.428757981651458,32.78266557453687,0,0,2771,8481,100,1,139
20.350704088114608,32.76157274687239,0,0,3966,8481,100,1,140
20.35023572651699,32.76157274687239,0,0,5207,8481,100,1,141
20.350704088114608,32.882549514742664,0,0,6501,8481,100,1,142
20.375177362018118,32.882549514742664,0,0,7707,8481,100,1,143
20.375177362018118,32.882549514742664,0,0,7990,8481,100,1,144
19.983427280257562,32.79357456024058,0,0,8006,8481,100,1,145
19.983427280257562,32.693664642508296,0,0,7990,8481,100,1,146
19.998120974916525,32.693664642508296,0,0,8006,8481,100,1,147
19.998120974916525,32.693664642508296,0,0,7990,8481,100,1,148
19.998120974916525,32.49440740823229,0,0,8006,8481,100,1,149
19.842756153283265,32.49440740823229,0,0,7990,8481,100,1,150
19.842756153283265,32.51567354577627,0,0,8006,8481,100,1,151
19.842756153283265,32.704603315480384,0,0,7990,8481,100,1,152
19.842756153283265,32.78266557453687,0,0,8006,8481,100,1,153
19.93147249654106,32.78266557453687,0,0,7990,8481,100,1,154
20.56131687291052,32.982618369070046,0,0,8006,8481,100,1,155
