BIOZ1_MAG,BIOZ1_PHASE,EXC_FREQ_KHZ,EXC_PIN,GND_PIN,SNS_AP_PIN,SNS_AN_PIN,PACKET_NUMBER
2.721268,3.138586,1,13,5,9,10,150
2.553595,-3.141199,1,13,5,10,11,152
4.147916,3.141298,1,13,5,11,12,156
3.895955,-0.004083,1,13,5,14,15,160
2.748216,0.006842,1,13,5,15,16,164
2.553811,0.000299,1,14,6,1,2,168
2.43888,0.003154,1,14,6,2,3,172
2.857826,0.004625,1,14,6,3,4,176
3.835817,-0.002976,1,14,6,4,5,180
4.145732,3.141506,1,14,6,7,8,184
2.773258,3.13791,1,14,6,8,9,188
2.717978,3.138891,1,14,6,9,10,192
2.184893,3.138779,1,14,6,10,11,196
2.688913,-3.133008,1,14,6,11,12,200
4.032613,-3.139985,1,14,6,12,13,204
4.090797,0.000684,1,14,6,15,16,208
2.827004,-0.003744,1,15,7,1,2,212
2.436039,0.003979,1,15,7,2,3,216
2.521912,0.01304,1,15,7,3,4,220
2.492384,0.002456,1,15,7,4,5,224
4.06073,-0.005629,1,15,7,5,6,228
4.146338,-3.141463,1,15,7,8,9,232
3.025413,-3.139957,1,15,7,9,10,236
2.214933,-3.132315,1,15,7,10,11,240
2.408764,3.134147,1,15,7,11,12,244
2.802262,-3.135621,1,15,7,12,13,248
4.086127,-3.140489,1,15,7,13,14,252
4.196266,-0.000245,1,16,8,1,2,0
2.745711,0.007385,1,16,8,2,3,4
2.523121,0.01279,1,16,8,3,4,8
2.183065,-0.002545,1,16,8,4,5,12
2.746317,0.007328,1,16,8,5,6,16
4.033163,0.001646,1,16,8,6,7,20
4.535033,3.137092,1,16,8,9,10,24
2.547296,-3.140438,1,16,8,10,11,28
2.43676,-3.137943,1,16,8,11,12,32
2.437298,-3.138,1,16,8,12,13,36
2.744239,-3.134179,1,16,8,13,14,40
4.148914,-3.141587,1,16,8,14,15,44
4.091641,0.000359,1,1,9,2,3,48
2.802841,0.005646,1,1,9,3,4,52
2.186805,-0.00322,1,1,9,4,5,56
2.494504,0.001603,1,1,9,5,6,60
2.746858,0.006824,1,1,9,6,7,64
4.207884,-0.001336,1,1,9,7,8,68
3.815978,-3.13745,1,1,9,10,11,72
2.716993,3.138821,1,1,9,11,12,76
2.466594,-3.127637,1,1,9,12,13,80
2.49298,-3.139687,1,1,9,13,14,84
2.748448,-3.134845,1,1,9,14,15,88
4.29338,-3.137366,1,1,9,15,16,92
4.201613,-0.000716,1,2,10,3,4,96
2.525449,0.012426,1,2,10,4,5,100
2.524545,0.012446,1,2,10,5,6,104
2.410885,-0.007763,1,2,10,6,7,108
2.773285,-0.003504,1,2,10,7,8,112
3.838923,-0.00293,1,2,10,8,9,116
4.261285,3.140128,1,2,10,11,12,120
2.857598,-3.136784,1,2,10,12,13,124
2.492911,-3.139372,1,2,10,13,14,128
2.439995,-3.138284,1,2,10,14,15,132
2.859749,-3.136959,1,2,10,15,16,136
4.34667,3.132416,1,3,11,1,2,140
3.868284,-0.010748,1,3,11,4,5,144
2.860503,0.004529,1,3,11,5,6,148
2.437596,0.003362,1,3,11,6,7,152
2.49642,0.001696,1,3,11,7,8,156
2.637316,0.009554,1,3,11,8,9,160
4.402735,0.002989,1,3,11,9,10,164
4.03886,-3.140382,1,3,11,12,13,168
2.7492,-3.13477,1,3,11,13,14,172
2.411304,3.133731,1,3,11,14,15,176
2.552706,-3.141001,1,3,11,15,16,180
2.918417,-3.138677,1,4,12,1,2,184
4.093085,-3.141343,1,4,12,2,3,188
4.512482,0.001414,1,4,12,5,6,192
2.803962,0.00558,1,4,12,6,7,196
2.524615,0.01213,1,4,12,7,8,200
2.354496,-0.006827,1,4,12,8,9,204
2.944082,0.012244,1,4,12,9,10,208
3.757756,0.00532,1,4,12,10,11,212
4.035951,-3.140433,1,4,12,13,14,216
2.692442,-3.133617,1,4,12,14,15,220
2.49629,-3.140028,1,4,12,15,16,224
2.659385,3.140253,1,5,13,1,2,228
2.858471,-3.136935,1,5,13,2,3,232
4.511147,-3.139848,1,5,13,3,4,236
4.092393,0.000439,1,5,13,6,7,240
2.802987,0.005778,1,5,13,7,8,244
2.325277,0.006137,1,5,13,8,9,248
2.551444,0.000574,1,5,13,9,10,252
2.493555,0.002027,1,5,13,10,11,0
4.034357,0.001316,1,5,13,11,12,4
3.980801,-3.139573,1,5,13,14,15,8
2.800629,-3.135635,1,5,13,15,16,12
2.606826,3.141403,1,6,14,1,2,16
2.467523,-3.127299,1,6,14,2,3,20
2.939662,3.135412,1,6,14,3,4,24
3.89308,3.137953,1,6,14,4,5,28
4.090451,0.000778,1,6,14,7,8,32
2.577999,0.011188,1,6,14,8,9,36
2.548877,0.001032,1,6,14,9,10,40
2.18326,-0.002549,1,6,14,10,11,44
2.635096,0.009735,1,6,14,11,12,48
4.031343,0.00158,1,6,14,12,13,52
4.144115,-3.141434,1,6,14,15,16,56
2.914532,-3.138425,1,7,15,1,2,60
2.492547,-3.139588,1,7,15,2,3,64
2.549524,-3.140843,1,7,15,3,4,68
2.661412,3.140256,1,7,15,4,5,72
4.090643,-3.140772,1,7,15,5,6,76
3.977321,0.002426,1,7,15,8,9,80
2.941225,-0.006299,1,7,15,9,10,84
2.184821,-0.002588,1,7,15,10,11,88
2.325616,0.006353,1,7,15,11,12,92
2.604057,4.7e-05,1,7,15,12,13,96
4.009239,0.009015,1,7,15,13,14,100
4.257857,3.140172,1,8,16,1,2,104
2.773533,3.138084,1,8,16,2,3,108
2.547871,-3.140405,1,8,16,3,4,112
2.406421,3.134378,1,8,16,4,5,116
2.827175,3.137308,1,8,16,5,6,120
4.224978,-3.135578,1,8,16,6,7,124
4.420818,-0.002999,1,8,16,9,10,128
2.488628,0.002716,1,8,16,10,11,132
2.322536,0.006693,1,8,16,11,12,136
2.322525,0.006603,1,8,16,12,13,140
2.685593,0.00892,1,8,16,13,14,144
4.059516,0.008448,1,8,16,14,15,148
4.138918,-3.141456,1,9,1,2,3,152
2.883007,-3.127737,1,9,1,3,4,156
2.434652,-3.13821,1,9,1,4,5,160
2.548037,-3.140856,1,9,1,5,6,164
2.966072,-3.139117,1,9,1,6,7,168
4.281764,-3.136905,1,9,1,7,8,172
3.699554,0.006255,1,9,1,10,11,176
2.659108,-0.001603,1,9,1,11,12,180
2.326369,0.005708,1,9,1,12,13,184
2.409709,0.015468,1,9,1,13,14,188
2.77039,-0.003761,1,9,1,14,15,192
4.178535,0.00584,1,9,1,15,16,196
4.252956,3.140413,1,10,2,3,4,200
2.714504,3.139274,1,10,2,4,5,204
2.575994,3.13104,1,10,2,5,6,208
2.602294,3.141542,1,10,2,6,7,212
2.823644,3.137375,1,10,2,7,8,216
3.969201,-3.138878,1,10,2,8,9,220
4.111659,-0.006175,1,10,2,11,12,224
2.631469,0.009943,1,10,2,12,13,228
2.433178,0.003773,1,10,2,13,14,232
2.491692,0.002292,1,10,2,14,15,236
2.798537,0.006222,1,10,2,15,16,240
4.281522,-0.008382,1,11,3,1,2,244
3.918642,-3.138505,1,11,3,4,5,248
2.91548,-3.138218,1,11,3,5,6,252
2.579005,-3.13065,1,11,3,6,7,0
2.547032,-3.140701,1,11,3,7,8,4
2.744574,-3.13441,1,11,3,8,9,8
4.451745,-3.138925,1,11,3,9,10,12
4.001067,-0.005039,1,11,3,12,13,16
2.689481,0.00835,1,11,3,13,14,20
2.408883,0.015756,1,11,3,14,15,24
2.433167,0.003684,1,11,3,15,16,28
2.827791,0.015185,1,12,4,1,2,32
4.05959,0.007954,1,12,4,2,3,36
4.560489,-3.140455,1,12,4,5,6,40
2.878867,3.136158,1,12,4,6,7,44
2.57305,-3.130346,1,12,4,7,8,48
2.434,-3.138196,1,12,4,8,9,52
2.795149,-3.135439,1,12,4,9,10,56
3.802654,-3.136678,1,12,4,10,11,60
3.975655,0.002135,1,12,4,13,14,64
2.686361,0.008412,1,12,4,14,15,68
2.434538,0.00334,1,12,4,15,16,72
2.544771,0.001029,1,13,5,1,2,76
2.769571,-0.003432,1,13,5,2,3,80
4.471403,-0.003747,1,13,5,3,4,84
4.279895,-3.136702,1,13,5,6,7,88
2.855784,-3.136929,1,13,5,7,8,92
2.405312,3.134134,1,13,5,8,9,96
2.491458,-3.139385,1,13,5,9,10,100
2.547594,-3.140757,1,13,5,10,11,104
4.089467,-3.141115,1,13,5,11,12,108
4.032214,0.001434,1,13,5,14,15,112
2.745051,0.007084,1,13,5,15,16,116
2.523393,0.012291,1,14,6,1,2,120
2.436931,0.003287,1,14,6,2,3,124
2.856428,0.004696,1,14,6,3,4,128
3.892201,-0.003672,1,14,6,4,5,132
4.147585,3.141481,1,14,6,7,8,136
2.688786,-3.13305,1,14,6,8,9,140
2.489796,-3.139305,1,14,6,9,10,144
2.236699,3.137822,1,14,6,10,11,148
2.713662,3.139336,1,14,6,11,12,152
3.969034,-3.138831,1,14,6,12,13,156
4.140066,0.0003,1,14,6,15,16,160
2.82224,-0.003475,1,15,7,1,2,164
2.378525,0.005365,1,15,7,2,3,168
2.491073,0.002664,1,15,7,3,4,172
2.656488,-0.000789,1,15,7,4,5,176
4.027842,0.002075,1,15,7,5,6,180
3.973304,-3.138799,1,15,7,8,9,184
2.824427,3.137539,1,15,7,9,10,188
2.237624,3.138024,1,15,7,10,11,192
2.432105,-3.137706,1,15,7,11,12,196
2.689874,-3.133027,1,15,7,12,13,200
4.059668,-3.133281,1,15,7,13,14,204
4.16591,0.007033,1,16,8,1,2,208
2.712746,-0.001881,1,16,8,2,3,212
2.490382,0.002499,1,16,8,3,4,216
2.326339,0.006291,1,16,8,4,5,220
2.742796,0.007621,1,16,8,5,6,224
4.173647,0.006575,1,16,8,6,7,228
4.416481,3.138646,1,16,8,9,10,232
2.544701,-3.140249,1,16,8,10,11,236
2.435019,-3.137905,1,16,8,11,12,240
2.378815,-3.136458,1,16,8,12,13,244
2.767894,3.138551,1,16,8,13,14,248
4.086664,-3.140541,1,16,8,14,15,252
4.06551,0.007561,1,1,9,2,3,0
2.858039,0.004352,1,1,9,3,4,4
2.353432,-0.006892,1,1,9,4,5,8
2.439935,0.002861,1,1,9,5,6,12
2.914423,0.003304,1,1,9,6,7,16
4.228231,0.005346,1,1,9,7,8,20
3.785625,3.138842,1,1,9,10,11,24
2.74589,-3.13466,1,1,9,11,12,28
2.378657,-3.136858,1,1,9,12,13,32
2.492207,-3.139625,1,1,9,13,14,36
2.773362,3.137773,1,1,9,14,15,40
4.23012,-3.136271,1,1,9,15,16,44
4.196975,-0.000433,1,2,10,3,4,48
2.715589,-0.002385,1,2,10,4,5,52
2.489727,0.002603,1,2,10,5,6,56
2.632879,0.009914,1,2,10,6,7,60
2.743517,0.007517,1,2,10,7,8,64
3.919914,0.003294,1,2,10,8,9,68
4.140825,-3.141213,1,2,10,11,12,72
2.688799,-3.13296,1,2,10,12,13,76
2.436748,-3.138033,1,2,10,13,14,80
2.436542,-3.137939,1,2,10,14,15,84
2.800892,-3.13555,1,2,10,15,16,88
4.341844,3.132611,1,3,11,1,2,92
3.891157,-0.003658,1,3,11,4,5,96
2.884786,-0.005545,1,3,11,5,6,100
2.659847,-0.001439,1,3,11,6,7,104
2.434573,0.003608,1,3,11,7,8,108
2.65986,-0.00135,1,3,11,8,9,112
4.336627,0.004167,1,3,11,9,10,116
4.032764,-3.140121,1,3,11,12,13,120
2.745193,-3.134377,1,3,11,13,14,124
2.46105,3.133305,1,3,11,14,15,128
2.520737,-3.128886,1,3,11,15,16,132
2.825473,3.136937,1,4,12,1,2,136
4.139268,-3.14155,1,4,12,2,3,140
4.483079,-0.00438,1,4,12,5,6,144
3.026294,0.001217,1,4,12,6,7,148
2.439408,0.003008,1,4,12,7,8,152
2.381096,0.004635,1,4,12,8,9,156
2.745774,0.00698,1,4,12,9,10,160
3.756889,0.005198,1,4,12,10,11,164
4.034527,-3.140324,1,4,12,13,14,168
2.714707,3.139001,1,4,12,14,15,172
2.493203,-3.139692,1,4,12,15,16,176
2.576387,-3.130371,1,5,13,1,2,180
2.800865,-3.135729,1,5,13,2,3,184
4.564393,-3.140367,1,5,13,3,4,188
4.310869,-0.001932,1,5,13,6,7,192
2.715805,-0.002568,1,5,13,7,8,196
2.324555,0.006198,1,5,13,8,9,200
2.436828,0.003334,1,5,13,9,10,204
2.435648,0.003495,1,5,13,10,11,208
4.034186,0.001363,1,5,13,11,12,212
4.037073,-3.140268,1,5,13,14,15,216
2.77228,3.138018,1,5,13,15,16,220
2.548889,-3.140471,1,6,14,1,2,224
2.495258,-3.139378,1,6,14,2,3,228
2.914892,-3.137804,1,6,14,3,4,232
3.977321,-3.139167,1,6,14,4,5,236
4.08847,0.000939,1,6,14,7,8,240
2.634154,0.009754,1,6,14,8,9,244
2.380279,0.004922,1,6,14,9,10,248
2.128268,-0.001359,1,6,14,10,11,252
2.660936,-0.001327,1,6,14,11,12,0
3.892915,-0.003593,1,6,14,12,13,4
4.145772,-3.141501,1,6,14,15,16,8
2.885639,3.135717,1,7,15,1,2,12
2.466814,-3.127642,1,7,15,2,3,16
2.548973,-3.140697,1,7,15,3,4,20
2.689102,3.12916,1,7,15,4,5,24
4.092433,-3.140975,1,7,15,5,6,28
3.922016,0.003265,1,7,15,8,9,32
2.720538,-0.002708,1,7,15,9,10,36
2.131024,-0.001474,1,7,15,10,11,40
2.384629,0.004689,1,7,15,11,12,44
2.638162,0.009672,1,7,15,12,13,48
4.037473,0.001498,1,7,15,13,14,52
4.208699,3.140516,1,8,16,1,2,56
2.747751,-3.134562,1,8,16,2,3,60
2.553861,-3.140935,1,8,16,3,4,64
2.408118,3.134161,1,8,16,4,5,68
2.748748,-3.134492,1,8,16,5,6,72
4.119362,3.135227,1,8,16,6,7,76
4.344587,0.004113,1,8,16,9,10,80
2.46894,0.014128,1,8,16,10,11,84
2.382721,0.004822,1,8,16,11,12,88
2.325616,0.006353,1,8,16,12,13,92
2.690014,0.008697,1,8,16,13,14,96
4.033904,0.001725,1,8,16,14,15,100
4.14425,3.141525,1,9,1,2,3,104
2.85667,-3.13699,1,9,1,3,4,108
2.465055,3.132724,1,9,1,4,5,112
2.466907,-3.127779,1,9,1,5,6,116
2.856146,-3.13707,1,9,1,6,7,120
4.222814,-3.135953,1,9,1,7,8,124
3.751399,0.005501,1,9,1,10,11,128
2.689682,0.008077,1,9,1,11,12,132
2.323703,0.006039,1,9,1,12,13,136
2.408113,0.015639,1,9,1,13,14,140
2.743193,0.006986,1,9,1,14,15,144
4.145146,-0.000214,1,9,1,15,16,148
4.254476,3.140394,1,10,2,3,4,152
2.718605,3.139013,1,10,2,4,5,156
2.494893,-3.139594,1,10,2,5,6,160
2.519531,3.131971,1,10,2,6,7,164
2.858741,-3.13685,1,10,2,7,8,168
3.975002,-3.13918,1,10,2,8,9,172
4.146688,3.5e-05,1,10,2,11,12,176
2.632866,0.009825,1,10,2,12,13,180
2.437504,0.003498,1,10,2,13,14,184
2.435225,0.003594,1,10,2,14,15,188
2.799405,0.006161,1,10,2,15,16,192
4.284563,-0.00851,1,11,3,1,2,196
4.005151,3.136364,1,11,3,4,5,200
2.914054,-3.138147,1,11,3,5,6,204
2.547259,-3.140705,1,11,3,6,7,208
2.548505,-3.140777,1,11,3,7,8,212
2.743594,-3.13439,1,11,3,8,9,216
4.253275,3.14014,1,11,3,9,10,220
3.865606,0.003875,1,11,3,12,13,224
2.689241,0.008355,1,11,3,13,14,228
2.434996,0.003509,1,11,3,14,15,232
2.437045,0.003329,1,11,3,15,16,236
2.689582,0.008213,1,12,4,1,2,240
4.057025,-0.005938,1,12,4,2,3,244
4.542061,-3.134371,1,12,4,5,6,248
2.914793,-3.13843,1,12,4,6,7,252
2.551527,-3.141245,1,12,4,7,8,0
2.438741,-3.13866,1,12,4,8,9,4
2.803329,-3.136045,1,12,4,9,10,8
3.868277,-3.138204,1,12,4,10,11,12
3.98093,0.001794,1,12,4,13,14,16
2.690062,0.008204,1,12,4,14,15,20
2.408389,-0.007841,1,12,4,15,16,24
2.436495,0.003297,1,13,5,1,2,28
2.749316,0.006775,1,13,5,2,3,32
4.459016,0.002176,1,13,5,3,4,36
4.31464,3.139255,1,13,5,6,7,40
2.831259,3.136647,1,13,5,7,8,44
2.381208,-3.136916,1,13,5,8,9,48
2.438983,-3.138486,1,13,5,9,10,52
2.581858,-3.130935,1,13,5,10,11,56
4.122304,-3.13484,1,13,5,11,12,60
3.948397,-0.004479,1,13,5,14,15,64
2.71532,-0.002559,1,13,5,15,16,68
2.380883,0.00464,1,14,6,1,2,72
2.381947,0.004615,1,14,6,2,3,76
2.855301,0.004852,1,14,6,3,4,80
3.920226,0.003111,1,14,6,4,5,84
4.145206,-3.141538,1,14,6,7,8,88
2.717006,3.138911,1,14,6,8,9,92
2.493462,-3.139429,1,14,6,9,10,96
2.324676,-3.135263,1,14,6,10,11,100
2.743478,-3.134343,1,14,6,11,12,104
3.914338,-3.138132,1,14,6,12,13,108
4.027065,0.001817,1,14,6,15,16,112
2.687323,0.009244,1,15,7,1,2,116
2.377799,0.005515,1,15,7,2,3,120
2.489961,0.002687,1,15,7,3,4,124
2.631989,0.010291,1,15,7,4,5,128
4.02998,0.001957,1,15,7,5,6,132
4.004623,-3.132337,1,15,7,8,9,136
2.769728,3.138381,1,15,7,9,10,140
2.29782,-3.122371,1,15,7,10,11,144
2.437081,-3.137995,1,15,7,11,12,148
2.690114,-3.133032,1,15,7,12,13,152
4.033884,-3.139957,1,15,7,13,14,156
4.202999,-0.00042,1,16,8,1,2,160
2.690976,0.008678,1,16,8,2,3,164
2.493474,0.002253,1,16,8,3,4,168
2.411657,-0.007646,1,16,8,4,5,172
2.691672,0.008485,1,16,8,5,6,176
4.116978,-0.006289,1,16,8,6,7,180
4.309756,3.139853,1,16,8,9,10,184
2.606004,3.141375,1,16,8,10,11,188
2.437287,-3.138089,1,16,8,11,12,192
2.381142,-3.1366,1,16,8,12,13,196
2.745827,-3.134255,1,16,8,13,14,200
4.148523,3.141514,1,16,8,14,15,204
4.093065,0.000161,1,1,9,2,3,208
2.804186,0.005396,1,1,9,3,4,212
2.410316,-0.007974,1,1,9,4,5,216
2.441027,0.002837,1,1,9,5,6,220
2.886658,-0.005984,1,1,9,6,7,224
4.205071,-0.001254,1,1,9,7,8,228
3.813787,-3.137284,1,1,9,10,11,232
2.750157,-3.134968,1,1,9,11,12,236
2.384032,-3.137384,1,1,9,12,13,240
2.382125,-3.13725,1,1,9,13,14,244
2.749173,-3.134949,1,1,9,14,15,248
4.26024,3.139738,1,1,9,15,16,252
4.236177,0.005244,1,2,10,3,4,0
2.660811,-0.001369,1,2,10,4,5,4
2.466409,0.014228,1,2,10,5,6,8
2.575424,-0.010496,1,2,10,6,7,12
2.803634,0.0059,1,2,10,7,8,16
3.919895,0.003205,1,2,10,8,9,20
4.200132,3.140985,1,2,10,11,12,24
2.690001,-3.132985,1,2,10,12,13,28
2.438376,-3.138114,1,2,10,13,14,32
2.406624,3.134284,1,2,10,14,15,36
2.826657,3.137228,1,2,10,15,16,40
4.225177,3.134135,1,3,11,1,2,44
3.944576,-0.004158,1,3,11,4,5,48
2.802249,0.005882,1,3,11,5,6,52
2.60528,-0.000382,1,3,11,6,7,56
2.491891,0.002108,1,3,11,7,8,60
2.659035,-0.001288,1,3,11,8,9,64
4.145556,-4e-05,1,3,11,9,10,68
3.922163,-3.138464,1,3,11,12,13,72
2.692469,-3.133438,1,3,11,13,14,76
2.436839,-3.138169,1,3,11,14,15,80
2.490358,-3.139272,1,3,11,15,16,84
2.771641,3.137896,1,4,12,1,2,88
4.091296,-3.14114,1,4,12,2,3,92
4.483649,0.008246,1,4,12,5,6,96
2.91071,-0.015773,1,4,12,6,7,100
2.548372,0.000684,1,4,12,7,8,104
2.323714,0.006128,1,4,12,8,9,108
2.770781,-0.003635,1,4,12,9,10,112
3.809072,0.004644,1,4,12,10,11,116
4.032895,-3.140347,1,4,12,13,14,120
2.746626,-3.134674,1,4,12,14,15,124
2.493191,-3.139781,1,4,12,15,16,128
2.436404,-3.138159,1,5,13,1,2,132
2.800879,-3.135639,1,5,13,2,3,136
4.509747,-3.139787,1,5,13,3,4,140
4.147936,-0.000205,1,5,13,6,7,144
2.800629,0.005958,1,5,13,7,8,148
2.324151,0.006297,1,5,13,8,9,152
2.3829,0.004549,1,5,13,9,10,156
2.54998,0.00074,1,5,13,10,11,160
4.090777,0.000595,1,5,13,11,12,164
4.058342,3.135861,1,5,13,14,15,168
2.801616,-3.135743,1,5,13,15,16,172
2.438285,-3.137977,1,6,14,1,2,176
2.43817,-3.138019,1,6,14,2,3,180
2.915001,-3.13794,1,6,14,3,4,184
3.943724,3.137581,1,6,14,4,5,188
4.090431,0.000689,1,6,14,7,8,192
2.608532,-0.000539,1,6,14,8,9,196
2.38473,0.004642,1,6,14,9,10,200
2.242363,-0.004221,1,6,14,10,11,204
2.693331,0.008272,1,6,14,11,12,208
3.869227,0.003779,1,6,14,12,13,212
4.121278,-3.134468,1,6,14,15,16,216
2.716979,3.138732,1,7,15,1,2,220
2.44059,-3.138746,1,7,15,2,3,224
2.496103,-3.139755,1,7,15,3,4,228
2.691128,3.128985,1,7,15,4,5,232
4.067216,-3.13374,1,7,15,5,6,236
3.979454,0.002397,1,7,15,8,9,240
2.748502,0.007106,1,7,15,9,10,244
2.270284,0.007778,1,7,15,10,11,248
2.412239,0.015815,1,7,15,11,12,252
2.606581,-0.000274,1,7,15,12,13,0
4.089759,0.000967,1,7,15,13,14,4
4.201436,3.140924,1,8,16,1,2,8
2.747519,-3.134468,1,8,16,2,3,12
2.527019,-3.12929,1,8,16,3,4,16
2.405245,3.134449,1,8,16,4,5,20
2.744743,-3.1341,1,8,16,5,6,24
4.061824,-3.133399,1,8,16,6,7,28
4.199047,-0.000414,1,8,16,9,10,32
2.579746,0.011286,1,8,16,10,11,36
2.434162,0.003796,1,8,16,11,12,40
2.326645,0.006239,1,8,16,12,13,44
2.662126,-0.001351,1,8,16,13,14,48
4.173965,-0.007031,1,8,16,14,15,52
4.145341,3.141421,1,9,1,2,3,56
2.883591,3.135846,1,9,1,3,4,60
2.407755,3.133856,1,9,1,4,5,64
2.49264,-3.139725,1,9,1,5,6,68
2.801721,-3.13588,1,9,1,6,7,72
4.256253,3.139834,1,9,1,7,8,76
3.752721,0.005393,1,9,1,10,11,80
2.718066,-0.002927,1,9,1,11,12,84
2.323801,0.005992,1,9,1,12,13,88
2.354464,0.017065,1,9,1,13,14,92
2.857919,0.004399,1,9,1,14,15,96
4.173919,0.006124,1,9,1,15,16,100
4.255416,3.140337,1,10,2,3,4,104
2.715589,3.139208,1,10,2,4,5,108
2.49345,-3.139518,1,10,2,5,6,112
2.489925,-3.139173,1,10,2,6,7,116
2.802499,-3.135716,1,10,2,7,8,120
4.0073,3.136335,1,10,2,8,9,124
4.202166,-0.000768,1,10,2,11,12,128
2.659747,-0.001303,1,10,2,12,13,132
2.381421,0.004672,1,10,2,13,14,136
2.49467,0.002003,1,10,2,14,15,140
2.746291,0.007149,1,10,2,15,16,144
4.146628,-0.000233,1,11,3,1,2,148
4.008336,3.136142,1,11,3,4,5,152
2.859345,-3.137086,1,11,3,5,6,156
2.525186,-3.12943,1,11,3,6,7,160
2.55088,-3.140962,1,11,3,7,8,164
2.774458,3.137617,1,11,3,8,9,168
4.232011,-3.136295,1,11,3,9,10,172
3.870045,0.003543,1,11,3,12,13,176
2.63507,0.009556,1,11,3,13,14,180
2.383528,0.004445,1,11,3,14,15,184
2.437366,0.003277,1,11,3,15,16,188
2.716264,-0.002757,1,12,4,1,2,192
4.034167,0.001274,1,12,4,2,3,196
4.568171,-3.140815,1,12,4,5,6,200
2.854389,-3.136858,1,12,4,6,7,204
2.550063,-3.141079,1,12,4,7,8,208
2.491656,-3.139569,1,12,4,8,9,212
2.800351,-3.135808,1,12,4,9,10,216
3.921755,-3.138727,1,12,4,10,11,220
3.947819,-0.004695,1,12,4,13,14,224
2.604201,-0.000583,1,12,4,14,15,228
2.41184,0.015241,1,12,4,15,16,232
2.436175,0.003349,1,13,5,1,2,236
2.801603,0.00576,1,13,5,2,3,240
4.480318,-0.004167,1,13,5,3,4,244
4.311416,3.139519,1,13,5,6,7,248
2.858336,-3.136977,1,13,5,7,8,252
2.467568,-3.127793,1,13,5,8,9,0
2.464186,3.132833,1,13,5,9,10,4
2.604116,3.141235,1,13,5,10,11,8
4.147174,3.141308,1,13,5,11,12,12
4.062447,-0.0061,1,13,5,14,15,16
2.716891,-0.002635,1,13,5,15,16,20
2.439189,0.003013,1,14,6,1,2,24
2.383303,0.00436,1,14,6,2,3,28
2.803105,0.005731,1,14,6,3,4,32
3.894434,-0.003838,1,14,6,4,5,36
4.148678,3.141378,1,14,6,7,8,40
2.74713,-3.134595,1,14,6,8,9,44
2.467488,-3.127567,1,14,6,9,10,48
2.267553,-3.133705,1,14,6,10,11,52
2.743362,-3.134296,1,14,6,11,12,56
3.919895,-3.138388,1,14,6,12,13,60
4.091701,0.000627,1,14,6,15,16,64
2.713868,-0.001679,1,15,7,1,2,68
2.378949,0.005355,1,15,7,2,3,72
2.437861,0.003715,1,15,7,3,4,76
2.579054,0.0113,1,15,7,4,5,80
3.979118,0.002491,1,15,7,5,6,84
4.089547,-3.140758,1,15,7,8,9,88
2.800892,-3.13555,1,15,7,9,10,92
2.268566,-3.133729,1,15,7,10,11,96
2.466189,-3.12736,1,15,7,11,12,100
2.658935,3.140441,1,15,7,12,13,104
4.202029,3.14105,1,15,7,13,14,108
4.06026,0.008527,1,16,8,1,2,112
2.720871,0.018163,1,16,8,2,3,116
2.436645,0.003607,1,16,8,3,4,120
2.158892,0.01092,1,16,8,4,5,124
2.692976,0.008324,1,16,8,5,6,128
4.005209,-0.00496,1,16,8,6,7,132
4.179935,-3.135368,1,16,8,9,10,136
2.637081,-3.132033,1,16,8,10,11,140
2.496351,-3.139581,1,16,8,11,12,144
2.38113,-3.13669,1,16,8,12,13,148
2.692862,-3.133221,1,16,8,13,14,152
4.260884,3.140044,1,16,8,14,15,156
4.042378,0.000714,1,1,9,2,3,160
2.776797,-0.004156,1,1,9,3,4,164
2.244115,-0.004712,1,1,9,4,5,168
2.440257,0.002809,1,1,9,5,6,172
2.751128,0.006515,1,1,9,6,7,176
4.210501,-0.001459,1,1,9,7,8,180
3.871739,-3.138253,1,1,9,10,11,184
2.777176,3.137474,1,1,9,11,12,188
2.385514,-3.137507,1,1,9,12,13,192
2.439729,-3.138637,1,1,9,13,14,196
2.942454,3.134733,1,1,9,14,15,200
4.202303,3.140599,1,1,9,15,16,204
4.203116,-0.000736,1,2,10,3,4,208
2.554077,0.000563,1,2,10,4,5,212
2.439225,0.003281,1,2,10,5,6,216
2.410821,0.015712,1,2,10,6,7,220
2.746046,0.007154,1,2,10,7,8,224
3.984928,0.002098,1,2,10,8,9,228
4.263553,3.14001,1,2,10,11,12,232
2.693217,-3.133273,1,2,10,12,13,236
2.442156,-3.138512,1,2,10,13,14,240
2.634938,3.129964,1,2,10,14,15,244
2.830555,3.137019,1,2,10,15,16,248
4.233055,3.133766,1,3,11,1,2,252
3.928074,0.002778,1,3,11,4,5,0
2.803739,0.005764,1,3,11,5,6,4
2.443226,0.002878,1,3,11,6,7,8
2.41242,0.015542,1,3,11,7,8,12
2.693432,0.008136,1,3,11,8,9,16
4.148678,-0.000215,1,3,11,9,10,20
3.926834,-3.138842,1,3,11,12,13,24
2.691645,-3.133287,1,3,11,13,14,28
2.602069,3.119808,1,3,11,14,15,32
2.491013,-3.139376,1,3,11,15,16,36
2.77821,-3.125493,1,4,12,1,2,40
4.063345,3.135436,1,4,12,2,3,44
4.453459,0.002333,1,4,12,5,6,48
2.806934,0.005253,1,4,12,6,7,52
2.441027,0.002837,1,4,12,7,8,56
2.413134,0.015212,1,4,12,8,9,60
2.748332,0.006795,1,4,12,9,10,64
3.814128,0.004303,1,4,12,10,11,68
4.148462,3.141246,1,4,12,13,14,72
2.887569,3.135636,1,4,12,14,15,76
2.441786,-3.138818,1,4,12,15,16,80
2.55178,-3.141071,1,5,13,1,2,84
2.805336,-3.136084,1,5,13,2,3,88
4.540218,3.136671,1,5,13,3,4,92
4.126733,0.006694,1,5,13,6,7,96
2.719423,-0.00282,1,5,13,7,8,100
2.382687,0.004554,1,5,13,8,9,104
2.411342,0.015566,1,5,13,9,10,108
2.550423,0.000641,1,5,13,10,11,112
4.087508,0.000727,1,5,13,11,12,116
4.147565,3.141392,1,5,13,14,15,120
2.771042,3.138042,1,5,13,15,16,124
2.492068,-3.138995,1,6,14,1,2,128
2.494143,-3.139354,1,6,14,2,3,132
2.858243,-3.136751,1,6,14,3,4,136
3.921472,3.130443,1,6,14,4,5,140
4.063792,0.008033,1,6,14,7,8,144
2.65951,-0.001298,1,6,14,8,9,148
2.383764,0.004619,1,6,14,9,10,152
2.272989,0.0074,1,6,14,10,11,156
2.74642,0.007191,1,6,14,11,12,160
3.865643,0.004053,1,6,14,12,13,164
4.094457,-3.140957,1,6,14,15,16,168
2.75039,-3.135063,1,7,15,1,2,172
2.441476,-3.138676,1,7,15,2,3,176
2.549308,-3.140749,1,7,15,3,4,180
2.495222,-3.139646,1,7,15,4,5,184
4.062913,-3.133414,1,7,15,5,6,188
3.9782,0.002369,1,7,15,8,9,192
2.748631,0.007148,1,7,15,9,10,196
2.271791,0.007608,1,7,15,10,11,200
2.408345,-0.007347,1,7,15,11,12,204
2.605428,-0.000161,1,7,15,12,13,208
4.203354,-0.000514,1,7,15,13,14,212
4.146298,3.141543,1,8,16,1,2,216
2.772294,3.138108,1,8,16,2,3,220
2.548542,-3.140509,1,8,16,3,4,224
2.21512,-3.132409,1,8,16,4,5,228
2.749369,-3.134459,1,8,16,5,6,232
4.206877,3.140809,1,8,16,6,7,236
4.150574,-6e-05,1,8,16,9,10,240
2.579394,0.011248,1,8,16,10,11,244
2.411377,0.015834,1,8,16,11,12,248
2.326853,0.006234,1,8,16,12,13,252
2.804519,0.005928,1,8,16,13,14,0
4.151513,-2.8e-05,1,8,16,14,15,4
4.096383,-3.141387,1,9,1,2,3,8
2.830366,3.136619,1,9,1,3,4,12
2.243323,3.13699,1,9,1,4,5,16
2.44243,-3.138922,1,9,1,5,6,20
2.776182,3.137493,1,9,1,6,7,24
4.261002,3.139728,1,9,1,7,8,28
3.813607,0.004266,1,9,1,10,11,32
2.75013,0.006445,1,9,1,11,12,36
2.328451,0.005659,1,9,1,12,13,40
2.382114,0.004253,1,9,1,13,14,44
2.690163,0.008067,1,9,1,14,15,48
4.148267,-0.000389,1,9,1,15,16,52
4.256916,3.140229,1,10,2,3,4,56
2.550436,-3.140863,1,10,2,4,5,60
2.493016,-3.139419,1,10,2,5,6,64
2.437928,-3.138193,1,10,2,6,7,68
2.800774,-3.135503,1,10,2,7,8,72
3.946838,3.137269,1,10,2,8,9,76
4.198631,-0.000588,1,10,2,11,12,80
2.601952,1e-06,1,10,2,12,13,84
2.356282,0.017247,1,10,2,13,14,88
2.380581,0.004781,1,10,2,14,15,92
2.747505,0.007035,1,10,2,15,16,96
4.116357,-0.006595,1,11,3,1,2,100
3.952931,3.136782,1,11,3,4,5,104
2.858834,-3.137076,1,11,3,5,6,108
2.493215,-3.139603,1,11,3,6,7,112
2.549296,-3.140838,1,11,3,7,8,116
2.773871,3.137853,1,11,3,8,9,120
4.205112,3.140517,1,11,3,9,10,124
3.864915,0.003884,1,11,3,12,13,128
2.663265,-0.001733,1,11,3,13,14,132
2.327126,0.005914,1,11,3,14,15,136
2.468346,0.013827,1,11,3,15,16,140
2.715907,-0.002705,1,12,4,1,2,144
4.011803,0.008397,1,12,4,2,3,148
4.515286,-3.140302,1,12,4,5,6,152
2.889791,-3.128179,1,12,4,6,7,156
2.551983,-3.141254,1,12,4,7,8,160
2.43551,-3.138319,1,12,4,8,9,164
2.804081,-3.13606,1,12,4,9,10,168
3.924523,-3.138945,1,12,4,10,11,172
4.115213,-0.006759,1,12,4,13,14,176
2.747336,0.006725,1,12,4,14,15,180
2.437342,0.003099,1,12,4,15,16,184
2.436495,0.003297,1,13,5,1,2,188
2.746148,0.007017,1,13,5,2,3,192
4.400001,0.003112,1,13,5,3,4,196
4.145166,3.141468,1,13,5,6,7,200
2.801366,-3.135738,1,13,5,7,8,204
2.435751,-3.138145,1,13,5,8,9,208
2.491996,-3.139531,1,13,5,9,10,212
2.636,-3.132146,1,13,5,10,11,216
4.202501,3.140641,1,13,5,11,12,220
4.088046,0.000676,1,13,5,14,15,224
2.742743,0.007264,1,13,5,15,16,228
2.410899,0.015486,1,14,6,1,2,232
2.436289,0.003391,1,14,6,2,3,236
2.802354,0.005745,1,14,6,3,4,240
3.833618,-0.002811,1,14,6,4,5,244
4.085895,-3.14071,1,14,6,7,8,248
2.713063,3.139392,1,14,6,8,9,252
2.435225,-3.137999,1,14,6,9,10,0
2.324151,-3.135296,1,14,6,10,11,4
2.798905,-3.135422,1,14,6,11,12,8
3.919379,-3.138336,1,14,6,12,13,12
4.029203,0.001698,1,14,6,15,16,16
2.68827,0.009135,1,15,7,1,2,20
2.437654,0.003809,1,15,7,2,3,24
2.465888,0.014464,1,15,7,3,4,28
2.436772,0.003739,1,15,7,4,5,32
3.976461,0.002572,1,15,7,5,6,36
4.031021,-3.139829,1,15,7,8,9,40
2.801643,-3.135565,1,15,7,9,10,44
2.324687,-3.135174,1,15,7,10,11,48
2.491494,-3.139117,1,15,7,11,12,52
2.661048,3.140219,1,15,7,12,13,56
4.28767,3.133223,1,15,7,13,14,60
4.092878,0.00097,1,16,8,1,2,64
2.691317,0.008537,1,16,8,2,3,68
2.49426,0.002281,1,16,8,3,4,72
2.215412,0.009132,1,16,8,4,5,76
2.691545,0.008443,1,16,8,5,6,80
4.230825,-0.007619,1,16,8,6,7,84
4.230023,-3.135866,1,16,8,9,10,88
2.660698,3.140271,1,16,8,10,11,92
2.495352,-3.139514,1,16,8,11,12,96
2.324993,-3.135225,1,16,8,12,13,100
2.912165,-3.137709,1,16,8,13,14,104
4.1432,-3.141378,1,16,8,14,15,108
4.00767,0.008408,1,1,9,2,3,112
2.803315,0.005458,1,1,9,3,4,116
2.215254,0.008642,1,1,9,4,5,120
2.411522,0.015293,1,1,9,5,6,124
2.914684,0.0033,1,1,9,6,7,128
4.174292,0.006119,1,1,9,7,8,132
3.865223,-3.137892,1,1,9,10,11,136
2.80321,-3.135998,1,1,9,11,12,140
2.353034,3.134889,1,1,9,12,13,144
2.603871,3.141151,1,1,9,13,14,148
2.803447,-3.136093,1,1,9,14,15,152
4.177985,-3.135701,1,1,9,15,16,156
4.202009,-0.000632,1,2,10,3,4,160
2.491692,0.002292,1,2,10,4,5,164
2.434905,0.003646,1,2,10,5,6,168
2.546171,0.001268,1,2,10,6,7,172
2.772672,-0.003448,1,2,10,7,8,176
3.86221,0.004191,1,2,10,8,9,180
4.287163,-3.136794,1,2,10,11,12,184
2.662,3.1402,1,2,10,12,13,188
2.606458,3.141276,1,2,10,13,14,192
2.493016,-3.139419,1,2,10,14,15,196
2.801894,-3.135569,1,2,10,15,16,200
4.225554,3.13413,1,3,11,1,2,204
3.837712,-0.002958,1,3,11,4,5,208
2.800392,0.006052,1,3,11,5,6,212
2.548517,0.000905,1,3,11,6,7,216
2.466177,0.014144,1,3,11,7,8,220
2.632866,0.009825,1,3,11,8,9,224
4.147976,-2.7e-05,1,3,11,9,10,228
3.92303,-3.138521,1,3,11,12,13,232
2.857194,-3.136911,1,3,11,13,14,236
2.436416,-3.13807,1,3,11,14,15,240
2.492547,-3.139588,1,3,11,15,16,244
2.802709,-3.135989,1,4,12,1,2,248
4.063178,-3.133866,1,4,12,2,3,252
4.395864,0.003118,1,4,12,5,6,0
2.915205,0.00329,1,4,12,6,7,4
2.496067,0.001569,1,4,12,7,8,8
2.325976,0.005896,1,4,12,8,9,12
2.718822,-0.002763,1,4,12,9,10,16
3.83818,-0.003189,1,4,12,10,11,20
4.201928,3.140603,1,4,12,13,14,24
2.720012,3.138626,1,4,12,14,15,28
2.470415,-3.128035,1,4,12,15,16,32
2.493661,-3.139612,1,5,13,1,2,36
2.802499,-3.135716,1,5,13,2,3,40
4.458805,-3.139459,1,5,13,3,4,44
4.262007,-0.001653,1,5,13,6,7,48
2.777072,-0.003982,1,5,13,7,8,52
2.328068,0.005937,1,5,13,8,9,56
2.438983,0.003107,1,5,13,9,10,60
2.552801,0.000455,1,5,13,10,11,64
4.089507,0.000656,1,5,13,11,12,68
4.097697,-3.141269,1,5,13,14,15,72
2.775347,3.137734,1,5,13,15,16,76
2.469382,-3.127474,1,6,14,1,2,80
2.494812,-3.139368,1,6,14,2,3,84
2.887489,3.135952,1,6,14,3,4,88
3.840278,3.138553,1,6,14,4,5,92
4.067772,0.00789,1,6,14,7,8,96
2.637316,0.009554,1,6,14,8,9,100
2.440856,0.0032,1,6,14,9,10,104
2.216205,0.009112,1,6,14,10,11,108
2.720052,-0.002698,1,6,14,11,12,112
3.869554,0.003685,1,6,14,12,13,116
4.095536,-3.141061,1,6,14,15,16,120
2.774341,3.137664,1,7,15,1,2,124
2.495539,-3.139788,1,7,15,2,3,128
2.496432,-3.139807,1,7,15,3,4,132
2.495011,-3.139552,1,7,15,4,5,136
4.065245,-3.133579,1,7,15,5,6,140
3.924599,0.003006,1,7,15,8,9,144
2.691431,0.00849,1,7,15,9,10,148
2.272294,0.007551,1,7,15,10,11,152
2.440972,0.003242,1,7,15,11,12,156
2.58237,0.011006,1,7,15,12,13,160
4.236087,-0.007866,1,7,15,13,14,164
4.124168,-3.134775,1,8,16,1,2,168
2.746795,-3.134364,1,8,16,2,3,172
2.493908,-3.139438,1,8,16,3,4,176
2.243177,3.137442,1,8,16,4,5,180
2.746795,-3.134364,1,8,16,5,6,184
4.372728,3.138787,1,8,16,6,7,188
4.143024,0.000262,1,8,16,9,10,192
2.577454,0.011423,1,8,16,10,11,196
2.436657,0.003696,1,8,16,11,12,200
2.271802,0.007697,1,8,16,12,13,204
2.912042,0.003931,1,8,16,13,14,208
4.091933,0.000848,1,8,16,14,15,212
4.093105,-3.141253,1,9,1,2,3,216
2.830739,3.136567,1,9,1,3,4,220
2.269333,-3.134106,1,9,1,4,5,224
2.494293,-3.139895,1,9,1,5,6,228
2.971459,-3.139529,1,9,1,6,7,232
4.260039,3.139696,1,9,1,7,8,236
3.813948,0.004261,1,9,1,10,11,240
2.747336,0.006725,1,9,1,11,12,244
2.272334,0.007056,1,9,1,12,13,248
2.604434,-0.000588,1,9,1,13,14,252
2.749638,0.006455,1,9,1,14,15,0
4.123565,0.006601,1,9,1,15,16,4
4.202562,3.140909,1,10,2,3,4,8
2.552021,-3.140986,1,10,2,4,5,12
2.520432,3.131952,1,10,2,5,6,16
2.65761,3.140333,1,10,2,6,7,20
2.824771,3.137309,1,10,2,7,8,24
3.915386,-3.138147,1,10,2,8,9,28
4.224361,0.005798,1,10,2,11,12,32
2.603089,-0.000202,1,10,2,12,13,36
2.604264,-0.000136,1,10,2,13,14,40
2.380268,0.004833,1,10,2,14,15,44
2.744587,0.007272,1,10,2,15,16,48
4.169275,-0.007104,1,11,3,1,2,52
3.891998,3.137789,1,11,3,4,5,56
2.855543,-3.136835,1,11,3,5,6,60
2.715078,3.139039,1,11,3,6,7,64
2.54556,-3.140625,1,11,3,7,8,68
2.659609,3.140159,1,11,3,8,9,72
4.254995,3.140163,1,11,3,9,10,76
3.865769,0.003827,1,11,3,12,13,80
2.856173,0.004701,1,11,3,13,14,84
2.407594,0.015785,1,11,3,14,15,88
2.379742,0.004889,1,11,3,15,16,92
2.715435,-0.002606,1,12,4,1,2,96
4.034337,0.001226,1,12,4,2,3,100
4.509278,-3.14005,1,12,4,5,6,104
3.080788,-3.141359,1,12,4,6,7,108
2.605598,3.14098,1,12,4,7,8,112
2.323921,-3.135469,1,12,4,8,9,116
2.799969,-3.135846,1,12,4,9,10,120
3.917923,-3.138585,1,12,4,10,11,124
4.198748,-0.000903,1,12,4,13,14,128
2.689101,0.008223,1,12,4,14,15,132
2.379808,0.004574,1,12,4,15,16,136
2.434126,0.003528,1,13,5,1,2,140
2.741288,0.007382,1,13,5,2,3,144
4.425037,-0.003588,1,13,5,3,4,148
4.338726,-3.137586,1,13,5,6,7,152
2.859587,-3.13718,1,13,5,7,8,156
2.326709,-3.135669,1,13,5,8,9,160
2.437584,-3.13832,1,13,5,9,10,164
2.605611,3.14107,1,13,5,10,11,168
4.171527,-3.135303,1,13,5,11,12,172
4.007201,0.008728,1,13,5,14,15,176
2.719897,-0.002919,1,13,5,15,16,180
2.438341,0.003211,1,14,6,1,2,184
2.438662,0.003159,1,14,6,2,3,188
2.860112,0.004492,1,14,6,3,4,192
3.697601,-0.008779,1,14,6,4,5,196
4.122713,-3.134666,1,14,6,7,8,200
2.636845,-3.132029,1,14,6,8,9,204
2.4688,-3.127686,1,14,6,9,10,208
2.270753,-3.13414,1,14,6,10,11,212
2.80188,-3.135659,1,14,6,11,12,216
3.92458,-3.138677,1,14,6,12,13,220
4.033826,0.001368,1,14,6,15,16,224
2.689825,0.00906,1,15,7,1,2,228
2.439054,0.003643,1,15,7,2,3,232
2.437207,0.003729,1,15,7,3,4,236
2.410957,0.015933,1,15,7,4,5,240
3.979099,0.002401,1,15,7,5,6,244
3.977321,-3.139167,1,15,7,8,9,248
2.776616,3.137889,1,15,7,9,10,252
2.326645,-3.135353,1,15,7,10,11,0
2.466305,-3.127317,1,15,7,11,12,4
2.634985,-3.131811,1,15,7,12,13,8
4.257497,3.140266,1,15,7,13,14,12
4.087414,0.001132,1,16,8,1,2,16
2.688699,0.008769,1,16,8,2,3,20
2.437631,0.00363,1,16,8,3,4,24
2.128469,-0.001275,1,16,8,4,5,28
2.691798,0.008527,1,16,8,5,6,32
4.256356,-0.001312,1,16,8,6,7,36
4.200527,3.14107,1,16,8,9,10,40
2.605649,3.141338,1,16,8,10,11,44
2.492595,-3.139231,1,16,8,11,12,48
2.381332,-3.136784,1,16,8,12,13,52
3.02809,-3.140184,1,16,8,13,14,56
4.091721,-3.140876,1,16,8,14,15,60
4.034508,0.001179,1,1,9,2,3,64
2.801207,0.005633,1,1,9,3,4,68
2.157217,0.010648,1,1,9,4,5,72
2.438971,0.003017,1,1,9,5,6,76
2.859452,0.00437,1,1,9,6,7,80
4.177611,0.005896,1,1,9,7,8,84
3.869151,-3.138171,1,1,9,10,11,88
2.860973,-3.137341,1,1,9,11,12,92
2.355538,3.134652,1,1,9,12,13,96
2.663013,3.139775,1,1,9,13,14,100
2.773962,3.137627,1,1,9,14,15,104
4.178005,-3.135612,1,1,9,15,16,108
4.147956,-0.000116,1,2,10,3,4,112
2.465088,0.014257,1,2,10,4,5,116
2.466409,0.014228,1,2,10,5,6,120
2.545489,0.001283,1,2,10,6,7,124
2.801525,0.006075,1,2,10,7,8,128
3.83416,-0.002684,1,2,10,8,9,132
4.256176,3.140328,1,2,10,11,12,136
2.634278,-3.131796,1,2,10,12,13,140
2.659397,3.140342,1,2,10,13,14,144
2.439122,-3.138265,1,2,10,14,15,148
2.803502,-3.135735,1,2,10,15,16,152
4.253583,3.127108,1,3,11,1,2,156
3.722824,-0.001246,1,3,11,4,5,160
2.80275,0.005872,1,3,11,5,6,164
2.604582,-0.000367,1,3,11,6,7,168
2.491458,0.002207,1,3,11,7,8,172
2.633919,0.009759,1,3,11,8,9,176
4.173959,0.006303,1,3,11,9,10,180
3.925263,-3.138776,1,3,11,12,13,184
2.940795,3.135078,1,3,11,13,14,188
2.435213,-3.138088,1,3,11,14,15,192
2.49003,-3.13922,1,3,11,15,16,196
2.772997,3.137825,1,4,12,1,2,200
4.060124,-3.13369,1,4,12,2,3,204
4.453648,0.002286,1,4,12,5,6,208
3.051887,-0.008291,1,4,12,6,7,212
2.492875,0.001953,1,4,12,7,8,216
2.325156,0.006005,1,4,12,8,9,220
2.716507,-0.002762,1,4,12,9,10,224
3.922992,0.002893,1,4,12,10,11,228
4.255534,3.140022,1,4,12,13,14,232
2.747233,-3.134731,1,4,12,14,15,236
2.467684,-3.127751,1,4,12,15,16,240
2.522077,-3.129004,1,5,13,1,2,244
2.859224,-3.137039,1,5,13,2,3,248
4.508919,-3.139866,1,5,13,3,4,252
4.392091,-0.009352,1,5,13,6,7,0
2.773623,-0.003735,1,5,13,7,8,4
2.323834,0.00626,1,5,13,8,9,8
2.436507,0.003386,1,5,13,9,10,12
2.547499,0.000972,1,5,13,10,11,16
4.142965,-6e-06,1,5,13,11,12,20
4.05655,3.135974,1,5,13,14,15,24
2.746046,-3.134439,1,5,13,15,16,28
2.491494,-3.139117,1,6,14,1,2,32
2.492806,-3.139325,1,6,14,2,3,36
2.916689,-3.138017,1,6,14,3,4,40
3.779309,3.13947,1,6,14,4,5,44
4.031382,0.001759,1,6,14,7,8,48
2.577551,0.011287,1,6,14,8,9,52
2.378602,0.005139,1,6,14,9,10,56
2.268662,0.007816,1,6,14,10,11,60
2.715717,-0.002343,1,6,14,11,12,64
3.834646,-0.002825,1,6,14,12,13,68
4.035649,-3.14016,1,6,14,15,16,72
2.746974,-3.134816,1,7,15,1,2,76
2.437366,-3.138315,1,7,15,2,3,80
2.548074,-3.140588,1,7,15,3,4,84
2.465436,-3.127209,1,7,15,4,5,88
4.031742,-3.139839,1,7,15,5,6,92
3.862737,0.004228,1,7,15,8,9,96
2.687865,0.00883,1,7,15,9,10,100
2.269388,0.007934,1,7,15,10,11,104
2.436221,0.003706,1,7,15,11,12,108
2.602197,8.5e-05,1,7,15,12,13,112
4.254697,-0.001067,1,7,15,13,14,116
4.139891,-3.141245,1,8,16,1,2,120
2.744342,-3.134316,1,8,16,2,3,124
2.523097,-3.128981,1,8,16,3,4,128
2.183948,3.139071,1,8,16,4,5,132
2.743646,-3.134033,1,8,16,5,6,136
4.284161,-3.136487,1,8,16,6,7,140
4.140475,0.000474,1,8,16,9,10,144
2.546746,0.001301,1,8,16,10,11,148
2.435363,0.003814,1,8,16,11,12,152
2.295454,-0.005012,1,8,16,12,13,156
2.936927,-0.005996,1,8,16,13,14,160
4.029071,0.001924,1,8,16,14,15,164
4.087488,-3.140955,1,9,1,2,3,168
2.853249,-3.136791,1,9,1,3,4,172
2.183115,3.138644,1,9,1,4,5,176
2.492968,-3.139776,1,9,1,5,6,180
2.968442,-3.13925,1,9,1,6,7,184
4.255513,3.139933,1,9,1,7,8,188
3.808355,0.004475,1,9,1,10,11,192
2.744418,0.006962,1,9,1,11,12,196
2.324937,0.00592,1,9,1,12,13,200
2.604997,-0.000734,1,9,1,13,14,204
2.714095,-0.002624,1,9,1,14,15,208
4.086008,0.000568,1,9,1,15,16,212
4.255976,3.140285,1,10,2,3,4,216
2.494788,-3.139547,1,10,2,4,5,220
2.495563,-3.139609,1,10,2,5,6,224
2.660097,3.140238,1,10,2,6,7,228
2.799537,-3.13539,1,10,2,7,8,232
3.892896,3.137911,1,10,2,8,9,236
4.231096,0.005444,1,10,2,11,12,240
2.60506,-0.000287,1,10,2,12,13,244
2.631072,-0.011415,1,10,2,13,14,248
2.438456,0.003253,1,10,2,14,15,252
2.717147,-0.00255,1,10,2,15,16,0
4.171863,-0.007228,1,11,3,1,2,4
3.781619,3.139168,1,11,3,4,5,8
2.856939,-3.136906,1,11,3,5,6,12
2.660897,3.139998,1,11,3,6,7,16
2.493543,-3.139655,1,11,3,7,8,20
2.661261,3.140035,1,11,3,8,9,24
4.196935,3.140981,1,11,3,9,10,28
3.862518,0.004007,1,11,3,12,13,32
2.882588,-0.005549,1,11,3,13,14,36
2.43661,0.003339,1,11,3,14,15,40
2.436828,0.003334,1,11,3,15,16,44
2.715051,-0.002732,1,12,4,1,2,48
4.034147,0.001184,1,12,4,2,3,52
4.511081,-3.140116,1,12,4,5,6,56
3.027761,-3.140537,1,12,4,6,7,60
2.550303,-3.140994,1,12,4,7,8,64
2.352192,3.134909,1,12,4,8,9,68
2.801839,-3.135927,1,12,4,9,10,72
3.949409,-3.132083,1,12,4,10,11,76
4.196894,-0.00079,1,12,4,13,14,80
2.688988,0.00827,1,12,4,14,15,84
2.381285,0.004451,1,12,4,15,16,88
2.436713,0.003292,1,13,5,1,2,92
2.774541,0.01653,1,13,5,2,3,96
4.477917,-0.004138,1,13,5,3,4,100
4.341418,-3.137709,1,13,5,6,7,104
2.827254,3.136993,1,13,5,7,8,108
2.324544,-3.135484,1,13,5,8,9,112
2.467255,-3.127652,1,13,5,9,10,116
2.606064,3.140971,1,13,5,10,11,120
4.202522,3.14073,1,13,5,11,12,124
3.981306,0.001878,1,13,5,14,15,128
2.690202,0.008335,1,13,5,15,16,132
2.438008,0.003173,1,14,6,1,2,136
2.383528,0.004445,1,14,6,2,3,140
2.827015,-0.004506,1,14,6,3,4,144
3.723453,-0.001434,1,14,6,4,5,148
4.117055,-3.134368,1,14,6,7,8,152
2.633226,-3.13173,1,14,6,8,9,156
2.464418,3.132918,1,14,6,9,10,160
2.267649,-3.133752,1,14,6,10,11,164
2.800274,-3.135493,1,14,6,11,12,168
3.921978,-3.138506,1,14,6,12,13,172
3.979041,0.002133,1,14,6,15,16,176
2.716983,-0.002009,1,15,7,1,2,180
2.380112,0.005284,1,15,7,2,3,184
2.491846,0.002602,1,15,7,3,4,188
2.382621,0.004869,1,15,7,4,5,192
3.97734,0.002515,1,15,7,5,6,196
3.946357,3.1375,1,15,7,8,9,200
2.743994,-3.134174,1,15,7,9,10,204
2.293524,3.13676,1,15,7,10,11,208
2.494236,-3.13949,1,15,7,11,12,212
2.660698,3.140271,1,15,7,12,13,216
4.311072,3.139703,1,15,7,13,14,220
4.081447,0.001434,1,16,8,1,2,224
2.743762,0.007512,1,16,8,2,3,228
2.493592,0.002296,1,16,8,3,4,232
2.101296,0.012913,1,16,8,4,5,236
2.690709,0.008504,1,16,8,5,6,240
4.148172,1.6e-05,1,16,8,6,7,244
4.199954,3.141032,1,16,8,9,10,248
2.633362,-3.131599,1,16,8,10,11,252
2.493802,-3.139391,1,16,8,11,12,0
2.38103,-3.136643,1,16,8,12,13,4
2.938349,3.135436,1,16,8,13,14,8
4.06396,3.135741,1,16,8,14,15,12
4.035931,0.00107,1,1,9,2,3,16
2.801839,0.005666,1,1,9,3,4,20
2.13022,-0.001812,1,1,9,4,5,24
2.413986,0.015103,1,1,9,5,6,28
2.772866,-0.00381,1,1,9,6,7,32
4.231434,0.00526,1,1,9,7,8,36
3.924357,-3.138898,1,1,9,10,11,40
2.805308,-3.136263,1,1,9,11,12,44
2.382977,-3.13727,1,1,9,12,13,48
2.663252,3.13977,1,1,9,13,14,52
2.747957,-3.134835,1,1,9,14,15,56
4.152311,3.140971,1,1,9,15,16,60
4.202364,-0.000726,1,2,10,3,4,64
2.440086,0.003172,1,2,10,4,5,68
2.441512,0.003185,1,2,10,5,6,72
2.465857,-0.008662,1,2,10,6,7,76
2.744845,0.007357,1,2,10,7,8,80
3.809969,0.004856,1,2,10,8,9,84
4.313931,3.139532,1,2,10,11,12,88
2.638733,-3.132067,1,2,10,12,13,92
2.662225,3.140105,1,2,10,13,14,96
2.466403,3.132874,1,2,10,14,15,100
2.745568,-3.13434,1,2,10,15,16,104
4.25918,3.14011,1,3,11,1,2,108
3.754611,0.005589,1,3,11,4,5,112
2.834474,0.014923,1,3,11,5,6,116
2.5501,0.000782,1,3,11,6,7,120
2.437699,0.003315,1,3,11,7,8,124
2.633683,0.009764,1,3,11,8,9,128
4.147956,-0.000116,1,3,11,9,10,132
3.930517,-3.138938,1,3,11,12,13,136
2.918859,-3.138371,1,3,11,13,14,140
2.471533,-3.12797,1,3,11,14,15,144
2.439546,-3.138364,1,3,11,15,16,148
2.807436,-3.13635,1,4,12,1,2,152
4.124497,-3.134959,1,4,12,2,3,156
4.402692,0.00281,1,4,12,5,6,160
2.976754,0.001786,1,4,12,6,7,164
2.442971,0.002614,1,4,12,7,8,168
2.361056,0.016508,1,4,12,8,9,172
2.694953,0.007791,1,4,12,9,10,176
3.898376,-0.004207,1,4,12,10,11,180
4.260641,3.139822,1,4,12,13,14,184
2.720012,3.138626,1,4,12,14,15,188
2.440924,-3.138709,1,4,12,15,16,192
2.522408,-3.129056,1,5,13,1,2,196
2.806472,-3.136062,1,5,13,2,3,200
4.519565,-3.140219,1,5,13,3,4,204
4.290936,0.004482,1,5,13,6,7,208
2.720384,-0.002929,1,5,13,7,8,212
2.327542,0.005904,1,5,13,8,9,216
2.412091,0.015504,1,5,13,9,10,220
2.579805,0.010881,1,5,13,10,11,224
4.093318,0.000471,1,5,13,11,12,228
4.006583,3.136345,1,5,13,14,15,232
2.719308,3.13882,1,5,13,15,16,236
2.495141,-3.13942,1,6,14,1,2,240
2.495141,-3.13942,1,6,14,2,3,244
2.913315,-3.137864,1,6,14,3,4,248
3.784522,3.139261,1,6,14,4,5,252
4.092433,0.000617,1,6,14,7,8,0
2.607611,-0.00043,1,6,14,8,9,4
2.383349,0.004718,1,6,14,9,10,8
2.216486,0.008971,1,6,14,10,11,12
2.693559,0.008178,1,6,14,11,12,16
3.870429,0.003717,1,6,14,12,13,20
4.039221,-3.140387,1,6,14,15,16,24
2.774092,3.137669,1,7,15,1,2,28
2.441902,-3.138775,1,7,15,2,3,32
2.551,-3.140919,1,7,15,3,4,36
2.496115,-3.139666,1,7,15,4,5,40
4.091528,-3.140918,1,7,15,5,6,44
3.836882,-0.002812,1,7,15,8,9,48
2.717301,-0.002329,1,7,15,9,10,52
2.244187,0.021035,1,7,15,10,11,56
2.437734,0.003583,1,7,15,11,12,60
2.580875,0.011083,1,7,15,12,13,64
4.31952,-0.002175,1,7,15,13,14,68
4.147761,3.141434,1,8,16,1,2,72
2.748113,-3.134614,1,8,16,2,3,76
2.548649,-3.140556,1,8,16,3,4,80
2.185202,3.138906,1,8,16,4,5,84
2.745813,-3.134345,1,8,16,5,6,88
4.206124,3.140818,1,8,16,6,7,92
4.149656,-4e-06,1,8,16,9,10,96
2.580183,0.011097,1,8,16,10,11,100
2.437734,0.003583,1,8,16,11,12,104
2.326634,0.00615,1,8,16,12,13,108
2.828811,-0.004361,1,8,16,13,14,112
3.980859,0.002288,1,8,16,14,15,116
4.088909,-3.141153,1,9,1,2,3,120
2.859317,-3.137265,1,9,1,3,4,124
2.214286,-3.132747,1,9,1,4,5,128
2.493191,-3.139781,1,9,1,5,6,132
2.80097,-3.135865,1,9,1,6,7,136
4.368529,3.138436,1,9,1,7,8,140
3.865895,0.003602,1,9,1,10,11,144
2.718667,-0.002984,1,9,1,11,12,148
2.329174,0.005597,1,9,1,12,13,152
2.494188,0.001745,1,9,1,13,14,156
2.663702,-0.002011,1,9,1,14,15,160
4.070374,0.007272,1,9,1,15,16,164
4.260322,3.140096,1,10,2,3,4,168
2.520883,3.131942,1,10,2,4,5,172
2.49345,-3.139518,1,10,2,5,6,176
2.493016,-3.139419,1,10,2,6,7,180
2.80275,-3.13572,1,10,2,7,8,184
3.894453,3.137844,1,10,2,8,9,188
4.207391,-0.001015,1,10,2,11,12,192
2.606115,-0.000264,1,10,2,12,13,196
2.547954,0.000962,1,10,2,13,14,200
2.38038,0.004875,1,10,2,14,15,204
2.687586,0.008567,1,10,2,15,16,208
4.172432,-0.00719,1,11,3,1,2,212
3.780145,3.139414,1,11,3,4,5,216
2.882467,3.136091,1,11,3,5,6,220
2.549404,-3.140885,1,11,3,6,7,224
2.492676,-3.139456,1,11,3,7,8,228
2.660197,3.140102,1,11,3,8,9,232
4.20175,3.140651,1,11,3,9,10,236
3.867133,0.003719,1,11,3,12,13,240
2.801867,0.005845,1,11,3,13,14,244
2.326622,0.00606,1,11,3,14,15,248
2.381835,0.004573,1,11,3,15,16,252
2.747943,0.006668,1,12,4,1,2,0
4.091987,0.000265,1,12,4,2,3,4
4.453438,-3.139349,1,12,4,5,6,8
2.913656,-3.138184,1,12,4,6,7,12
2.493098,-3.139645,1,12,4,7,8,16
2.326479,-3.135843,1,12,4,8,9,20
2.804952,-3.136122,1,12,4,9,10,24
3.982899,-3.139781,1,12,4,10,11,28
4.263449,-0.00203,1,12,4,13,14,32
2.635975,0.009268,1,12,4,14,15,36
2.356259,-0.007092,1,12,4,15,16,40
2.385335,0.004359,1,13,5,1,2,44
2.772632,-0.003716,1,13,5,2,3,48
4.402528,0.002946,1,13,5,3,4,52
4.233683,-3.136451,1,13,5,6,7,56
2.771407,3.137991,1,13,5,7,8,60
2.326097,-3.135565,1,13,5,8,9,64
2.466606,-3.127548,1,13,5,9,10,68
2.660309,3.140055,1,13,5,10,11,72
4.14425,3.141525,1,13,5,11,12,76
3.922475,0.002945,1,13,5,14,15,80
2.636472,0.009437,1,13,5,15,16,84
2.381734,0.00462,1,14,6,1,2,88
2.438777,0.003201,1,14,6,2,3,92
2.830274,-0.004747,1,14,6,3,4,96
3.672365,-0.000748,1,14,6,4,5,100
4.145752,-3.14159,1,14,6,7,8,104
2.634501,-3.131891,1,14,6,8,9,108
2.440845,-3.138482,1,14,6,9,10,112
2.412738,-3.126103,1,14,6,10,11,116
2.804359,-3.135886,1,14,6,11,12,120
3.926668,-3.138795,1,14,6,12,13,124
3.951937,0.009744,1,14,6,15,16,128
2.746732,0.007633,1,15,7,1,2,132
2.379676,0.005204,1,15,7,2,3,136
2.461409,-0.008071,1,15,7,3,4,140
2.408703,0.016028,1,15,7,4,5,144
4.028712,0.001929,1,15,7,5,6,148
3.920283,-3.138214,1,15,7,8,9,152
2.770718,3.138362,1,15,7,9,10,156
2.38103,-3.136643,1,15,7,10,11,160
2.434379,-3.137801,1,15,7,11,12,164
2.657886,3.140596,1,15,7,12,13,168
4.533626,3.137153,1,15,7,13,14,172
4.113922,-0.005936,1,16,8,1,2,176
2.687511,0.008882,1,16,8,2,3,180
2.467303,0.014298,1,16,8,3,4,184
2.156792,0.011152,1,16,8,4,5,188
2.688459,0.008773,1,16,8,5,6,192
4.169021,0.006769,1,16,8,6,7,196
4.199204,3.141042,1,16,8,9,10,200
2.68904,-3.132965,1,16,8,10,11,204
2.463249,3.133257,1,16,8,11,12,208
2.352331,-3.123897,1,16,8,12,13,212
2.770718,3.138362,1,16,8,13,14,216
4.20033,3.141027,1,16,8,14,15,220
4.062795,0.007643,1,1,9,2,3,224
2.801457,0.005628,1,1,9,3,4,228
2.157115,0.010606,1,1,9,4,5,232
2.435625,0.003316,1,1,9,5,6,236
2.882846,-0.005554,1,1,9,6,7,240
4.367791,-0.002968,1,1,9,7,8,244
3.918623,-3.138594,1,1,9,10,11,248
2.801721,-3.13588,1,1,9,11,12,252
2.358855,-3.124899,1,1,9,12,13,0
2.437996,-3.138509,1,1,9,13,14,4
2.716993,3.138821,1,1,9,14,15,8
4.115371,-3.13448,1,1,9,15,16,12
4.201436,-0.000669,1,2,10,3,4,16
2.492138,0.002282,1,2,10,4,5,20
2.436427,0.003612,1,2,10,5,6,24
2.522326,0.012762,1,2,10,6,7,28
2.801261,0.005991,1,2,10,7,8,32
3.807463,0.005115,1,2,10,8,9,36
4.254656,3.140347,1,2,10,11,12,40
2.659635,3.140337,1,2,10,12,13,44
2.436736,-3.138122,1,2,10,13,14,48
2.380067,-3.136666,1,2,10,14,15,52
2.745091,-3.134241,1,2,10,15,16,56
4.222914,3.134164,1,3,11,1,2,60
3.719676,-0.001156,1,3,11,4,5,64
2.797906,0.00619,1,3,11,5,6,68
2.54908,0.000849,1,3,11,6,7,72
2.490685,0.002269,1,3,11,7,8,76
2.602966,-0.000244,1,3,11,8,9,80
4.149245,-0.000178,1,3,11,9,10,84
3.923196,-3.138568,1,3,11,12,13,88
2.71762,3.138943,1,3,11,13,14,92
2.380256,-3.136849,1,3,11,14,15,96
2.381634,-3.136925,1,3,11,15,16,100
2.801971,-3.135885,1,4,12,1,2,104
4.143295,3.141403,1,4,12,2,3,108
4.507498,0.001699,1,4,12,5,6,112
2.911068,0.003546,1,4,12,6,7,116
2.491551,0.002071,1,4,12,7,8,120
2.323201,0.006185,1,4,12,8,9,124
2.686601,0.008408,1,4,12,9,10,128
3.917242,0.003107,1,4,12,10,11,132
4.445528,3.13162,1,4,12,13,14,136
2.68674,-3.133054,1,4,12,14,15,140
2.379719,-3.136882,1,4,12,15,16,144
2.433269,-3.137956,1,5,13,1,2,148
2.824757,3.13722,1,5,13,2,3,152
4.471214,3.137893,1,5,13,3,4,156
4.224341,0.005709,1,5,13,6,7,160
2.742267,0.007363,1,5,13,7,8,164
2.267543,0.007798,1,5,13,8,9,168
2.38132,0.004719,1,5,13,9,10,172
2.604679,-0.000504,1,5,13,10,11,176
4.064842,0.007839,1,5,13,11,12,180
3.979397,-3.139464,1,5,13,14,15,184
2.690329,-3.133215,1,5,13,15,16,188
2.440018,-3.138105,1,6,14,1,2,192
2.494577,-3.139453,1,6,14,2,3,196
2.910236,-3.137539,1,6,14,3,4,200
3.725153,3.140313,1,6,14,4,5,204
4.20108,-0.000575,1,6,14,7,8,208
2.548422,0.001042,1,6,14,8,9,212
2.409399,-0.00755,1,6,14,9,10,216
2.324774,0.006283,1,6,14,10,11,220
2.689267,0.008533,1,6,14,11,12,224
3.836178,-0.002892,1,6,14,12,13,228
4.037263,-3.140226,1,6,14,15,16,232
2.803092,-3.135951,1,7,15,1,2,236
2.465833,3.132752,1,7,15,2,3,240
2.492466,-3.139362,1,7,15,3,4,244
2.493016,-3.139419,1,7,15,4,5,248
4.085377,-3.140568,1,7,15,5,6,252
3.893959,-0.003607,1,7,15,8,9,0
2.690241,0.008603,1,7,15,9,10,4
2.356205,0.017473,1,7,15,10,11,8
2.38178,0.004978,1,7,15,11,12,12
2.605894,-0.00017,1,7,15,12,13,16
4.50979,0.001985,1,7,15,13,14,20
4.174156,-3.135248,1,8,16,1,2,24
2.802262,-3.135621,1,8,16,2,3,28
2.493908,-3.139438,1,8,16,3,4,32
2.214328,-3.13239,1,8,16,4,5,36
2.746072,-3.13426,1,8,16,5,6,40
4.231357,-3.135838,1,8,16,6,7,44
4.149285,1e-06,1,8,16,9,10,48
2.636051,0.009805,1,8,16,10,11,52
2.381142,0.004992,1,8,16,11,12,56
2.295562,-0.00497,1,8,16,12,13,60
2.885773,0.014207,1,8,16,13,14,64
4.20035,-0.000476,1,8,16,14,15,68
4.14166,3.141559,1,9,1,2,3,72
2.856294,-3.136939,1,9,1,3,4,76
2.268618,-3.134133,1,9,1,4,5,80
2.492863,-3.139729,1,9,1,5,6,84
2.968568,-3.139297,1,9,1,6,7,88
4.455218,-3.139416,1,9,1,7,8,92
3.868114,0.003436,1,9,1,10,11,96
2.717823,-0.002922,1,9,1,11,12,100
2.295592,-0.005553,1,9,1,12,13,104
2.467324,0.013626,1,9,1,13,14,108
2.883591,-0.005747,1,9,1,14,15,112
4.034147,0.001184,1,9,1,15,16,116
4.254455,3.140305,1,10,2,3,4,120
2.550112,-3.140721,1,10,2,4,5,124
2.550892,-3.140872,1,10,2,5,6,128
2.660447,3.140186,1,10,2,6,7,132
2.971126,-3.13912,1,10,2,7,8,136
3.920761,-3.138445,1,10,2,8,9,140
4.175255,0.006241,1,10,2,11,12,144
2.604962,-0.000151,1,10,2,12,13,148
2.380682,0.004734,1,10,2,13,14,152
2.548409,0.000952,1,10,2,14,15,156
2.660811,-0.001369,1,10,2,15,16,160
4.176498,-0.007422,1,11,3,1,2,164
3.778438,3.139348,1,11,3,4,5,168
2.855556,-3.136745,1,11,3,5,6,172
2.659372,3.140163,1,11,3,6,7,176
2.663754,3.13994,1,11,3,7,8,180
2.661386,3.140078,1,11,3,8,9,184
4.204558,3.140569,1,11,3,9,10,188
3.870228,0.003586,1,11,3,12,13,192
2.717735,-0.002696,1,11,3,13,14,196
2.492676,0.002136,1,11,3,14,15,200
2.324642,0.006062,1,11,3,15,16,204
2.690657,0.008147,1,12,4,1,2,208
4.090717,0.000326,1,12,4,2,3,212
4.568364,-3.140862,1,12,4,5,6,216
3.027746,-3.140626,1,12,4,6,7,220
2.660871,3.139819,1,12,4,7,8,224
2.380334,-3.137075,1,12,4,8,9,228
2.776603,-3.125417,1,12,4,9,10,232
3.977955,-3.139534,1,12,4,10,11,236
4.480864,-0.004398,1,12,4,13,14,240
2.745631,0.006848,1,12,4,14,15,244
2.325451,0.005864,1,12,4,15,16,248
2.408238,0.01577,1,13,5,1,2,252
2.7442,0.007145,1,13,5,2,3,0
4.425619,-0.00364,1,13,5,3,4,4
4.309491,3.139543,1,13,5,6,7,8
2.912766,-3.138033,1,13,5,7,8,12
2.350325,3.135131,1,13,5,8,9,16
2.461234,3.133033,1,13,5,9,10,20
2.689949,-3.133342,1,13,5,10,11,24
4.14351,3.141535,1,13,5,11,12,28
4.093858,0.000419,1,13,5,14,15,32
2.661023,-0.001553,1,13,5,15,16,36
2.405742,-0.007468,1,14,6,1,2,40
2.405956,-0.007473,1,14,6,2,3,44
2.859359,0.004596,1,14,6,3,4,48
3.6686,-0.000647,1,14,6,4,5,52
4.318114,3.139211,1,14,6,7,8,56
2.634278,-3.131796,1,14,6,8,9,60
2.439213,-3.138401,1,14,6,9,10,64
2.352227,3.135177,1,14,6,10,11,68
2.747505,-3.134557,1,14,6,11,12,72
3.925282,-3.138686,1,14,6,12,13,76
3.925467,0.002949,1,14,6,15,16,80
2.688864,0.009079,1,15,7,1,2,84
2.381165,0.005171,1,15,7,2,3,88
2.465552,0.014426,1,15,7,3,4,92
2.436978,0.003644,1,15,7,4,5,96
4.032822,0.00174,1,15,7,5,6,100
3.949866,3.137363,1,15,7,8,9,104
2.771447,3.138259,1,15,7,9,10,108
2.380817,-3.136638,1,15,7,10,11,112
2.463341,3.133121,1,15,7,11,12,116
2.63278,-3.131542,1,15,7,12,13,120
4.478403,3.137807,1,15,7,13,14,124
4.115857,0.007644,1,16,8,1,2,128
2.715743,-0.002164,1,16,8,2,3,132
2.437298,0.003593,1,16,8,3,4,136
2.157847,0.01108,1,16,8,4,5,140
2.715372,-0.002201,1,16,8,5,6,144
4.14468,0.000196,1,16,8,6,7,148
4.201278,3.14106,1,16,8,9,10,152
2.691063,-3.13314,1,16,8,10,11,156
2.4927,-3.139278,1,16,8,11,12,160
2.326535,-3.135396,1,16,8,12,13,164
3.11152,-3.132532,1,16,8,13,14,168
4.257317,3.140313,1,16,8,14,15,172
4.121547,0.006673,1,1,9,2,3,176
2.802946,0.00551,1,1,9,3,4,180
2.184872,-0.002993,1,1,9,4,5,184
2.380871,0.00455,1,1,9,5,6,188
2.827107,-0.004731,1,1,9,6,7,192
4.395678,0.003165,1,1,9,7,8,196
3.923674,-3.138799,1,1,9,10,11,200
2.775451,3.137598,1,1,9,11,12,204
2.327629,-3.135825,1,1,9,12,13,208
2.748086,-3.134793,1,1,9,13,14,212
2.968582,-3.139208,1,1,9,14,15,216
4.118834,-3.13466,1,1,9,15,16,220
4.17343,0.006444,1,2,10,3,4,224
2.462913,-0.008373,1,2,10,4,5,228
2.437184,0.00355,1,2,10,5,6,232
2.548649,0.001037,1,2,10,6,7,236
2.969812,0.002587,1,2,10,7,8,240
3.894453,-0.003748,1,2,10,8,9,244
4.255416,3.140337,1,2,10,11,12,248
2.629974,-3.131395,1,2,10,12,13,252
2.715232,3.13926,1,2,10,13,14,0
2.657287,3.140564,1,2,10,14,15,4
2.741804,-3.134042,1,2,10,15,16,8
4.282147,3.133427,1,3,11,1,2,12
3.722981,-0.001293,1,3,11,4,5,16
2.801247,0.005901,1,3,11,5,6,20
2.604594,-0.000278,1,3,11,6,7,24
2.632285,0.009882,1,3,11,7,8,28
2.660798,-0.001458,1,3,11,8,9,32
4.142985,8.3e-05,1,3,11,9,10,36
3.922845,-3.138563,1,3,11,12,13,40
3.023649,-3.13997,1,3,11,13,14,44
2.602746,3.141443,1,3,11,14,15,48
2.411342,-3.126027,1,3,11,15,16,52
2.745631,-3.134744,1,4,12,1,2,56
4.230677,-3.136323,1,4,12,2,3,60
4.482847,0.008256,1,4,12,5,6,64
3.027219,0.001066,1,4,12,6,7,68
2.715192,-0.002601,1,4,12,7,8,72
2.349905,-0.006452,1,4,12,8,9,76
2.715907,-0.002705,1,4,12,9,10,80
3.92159,0.002913,1,4,12,10,11,84
4.453271,-3.139213,1,4,12,13,14,88
2.912615,-3.138165,1,4,12,14,15,92
2.382462,-3.137123,1,4,12,15,16,96
2.492676,-3.139456,1,5,13,1,2,100
2.82752,3.137077,1,5,13,2,3,104
4.455848,-3.139289,1,5,13,3,4,108
4.262749,-0.001752,1,5,13,6,7,112
2.971503,0.002332,1,5,13,7,8,116
2.298067,-0.005522,1,5,13,8,9,120
2.412294,0.01541,1,5,13,9,10,124
2.606555,-0.000453,1,5,13,10,11,128
4.060506,0.007987,1,5,13,11,12,132
4.172982,3.13435,1,5,13,14,15,136
2.693533,-3.133594,1,5,13,15,16,140
2.494037,-3.139307,1,6,14,1,2,144
2.437184,-3.138042,1,6,14,2,3,148
2.883267,3.136255,1,6,14,3,4,152
3.756467,-3.135985,1,6,14,4,5,156
4.256557,-0.00127,1,6,14,7,8,160
2.546506,0.001217,1,6,14,8,9,164
2.379966,0.004974,1,6,14,9,10,168
2.325715,0.006306,1,6,14,10,11,172
2.661286,-0.001379,1,6,14,11,12,176
3.869938,0.003859,1,6,14,12,13,180
3.978368,-3.139271,1,6,14,15,16,184
2.74407,-3.134489,1,7,15,1,2,188
2.436725,-3.138211,1,7,15,2,3,192
2.547631,-3.140489,1,7,15,3,4,196
2.492138,-3.13931,1,7,15,4,5,200
4.087202,-3.140592,1,7,15,5,6,204
3.92375,0.003152,1,7,15,8,9,208
2.71995,-0.002561,1,7,15,9,10,212
2.327368,0.006178,1,7,15,10,11,216
2.414579,0.015493,1,7,15,11,12,220
2.549789,0.001013,1,7,15,12,13,224
4.513611,0.001894,1,7,15,13,14,228
4.178046,-3.135433,1,8,16,1,2,232
2.748967,-3.134676,1,8,16,2,3,236
2.52489,-3.129109,1,8,16,3,4,240
2.215423,-3.132372,1,8,16,4,5,244
2.800669,-3.135367,1,8,16,5,6,248
4.089759,-3.140626,1,8,16,6,7,252
4.14468,0.000196,1,8,16,9,10,0
2.63465,0.009923,1,8,16,10,11,4
2.411796,0.015735,1,8,16,11,12,8
2.271695,0.007655,1,8,16,12,13,12
3.10918,0.009235,1,8,16,13,14,16
4.229268,0.005736,1,8,16,14,15,20
4.174841,-3.135526,1,9,1,2,3,24
2.858955,-3.137123,1,9,1,3,4,28
2.237759,3.137483,1,9,1,4,5,32
2.491422,-3.139653,1,9,1,5,6,36
2.80122,-3.13587,1,9,1,6,7,40
4.512078,-3.140173,1,9,1,7,8,44
3.868988,0.003468,1,9,1,10,11,48
2.690998,0.008005,1,9,1,11,12,52
2.26913,0.007492,1,9,1,12,13,56
2.772983,-0.003857,1,9,1,13,14,60
2.85855,0.004342,1,9,1,14,15,64
4.090351,0.000331,1,9,1,15,16,68
4.201258,3.140971,1,10,2,3,4,72
2.490709,-3.139145,1,10,2,4,5,76
2.492571,-3.139409,1,10,2,5,6,80
2.494224,-3.13958,1,10,2,6,7,84
3.024332,-3.139937,1,10,2,7,8,88
3.976423,-3.1392,1,10,2,8,9,92
4.198079,-0.000536,1,10,2,11,12,96
2.602159,-0.000182,1,10,2,12,13,100
2.774438,0.016667,1,10,2,13,14,104
2.572339,-0.010297,1,10,2,14,15,108
2.685933,0.008779,1,10,2,15,16,112
4.199894,-0.000829,1,11,3,1,2,116
3.807569,-3.136792,1,11,3,4,5,120
2.90891,-3.137693,1,11,3,5,6,124
2.545573,-3.140535,1,11,3,6,7,128
2.744574,-3.13441,1,11,3,7,8,132
2.746032,-3.134528,1,11,3,8,9,136
4.192857,3.141213,1,11,3,9,10,140
3.860795,0.004031,1,11,3,12,13,144
3.077823,0.000644,1,11,3,13,14,148
2.602514,-0.000145,1,11,3,14,15,152
2.376258,0.005103,1,11,3,15,16,156
2.713253,-0.002562,1,12,4,1,2,160
4.140376,2.8e-05,1,12,4,2,3,164
4.536809,-3.134218,1,12,4,5,6,168
2.91234,-3.138249,1,12,4,6,7,172
2.745154,-3.134645,1,12,4,7,8,176
2.492089,-3.139668,1,12,4,8,9,180
2.798116,-3.135676,1,12,4,9,10,184
3.976159,-3.139599,1,12,4,10,11,188
4.393597,-0.009639,1,12,4,13,14,192
2.857408,0.004409,1,12,4,14,15,196
2.323899,0.005945,1,12,4,15,16,200
2.491211,0.002034,1,13,5,1,2,204
2.801484,0.005807,1,13,5,2,3,208
4.452895,0.002474,1,13,5,3,4,212
4.31253,3.139326,1,13,5,6,7,216
3.054185,3.133126,1,13,5,7,8,220
2.437675,-3.138457,1,13,5,8,9,224
2.437148,-3.13831,1,13,5,9,10,228
2.659009,3.140126,1,13,5,10,11,232
4.08966,-3.141073,1,13,5,11,12,236
4.145146,-0.000214,1,13,5,14,15,240
2.662775,-0.001812,1,13,5,15,16,244
2.438341,0.003211,1,14,6,1,2,248
2.381959,0.004705,1,14,6,2,3,252
2.79901,0.006034,1,14,6,3,4,0
3.697955,0.006547,1,14,6,4,5,4
4.30856,3.139689,1,14,6,7,8,8
2.715818,3.139114,1,14,6,8,9,12
2.436736,-3.138122,1,14,6,9,10,16
2.37953,-3.136698,1,14,6,10,11,20
2.742654,-3.134103,1,14,6,11,12,24
3.9166,-3.138208,1,14,6,12,13,28
3.946851,0.009948,1,14,6,15,16,32
2.71062,-0.001481,1,15,7,1,2,36
2.379799,0.005336,1,15,7,2,3,40
2.491611,0.002518,1,15,7,3,4,44
2.381567,0.004983,1,15,7,4,5,48
4.039089,0.001432,1,15,7,5,6,52
3.975396,-3.139007,1,15,7,8,9,56
2.769975,3.138377,1,15,7,9,10,60
2.38197,-3.136798,1,15,7,10,11,64
2.438376,-3.138114,1,15,7,11,12,68
2.635109,-3.131769,1,15,7,12,13,72
4.623969,-3.140988,1,15,7,13,14,76
4.144175,0.000426,1,16,8,1,2,80
2.716458,-0.002268,1,16,8,2,3,84
2.492818,0.002357,1,16,8,3,4,88
2.128569,-0.001232,1,16,8,4,5,92
2.745465,0.007389,1,16,8,5,6,96
4.09047,0.000868,1,16,8,6,7,100
4.204223,3.140753,1,16,8,9,10,104
2.663303,3.140128,1,16,8,10,11,108
2.462033,3.133239,1,16,8,11,12,112
2.324272,-3.135164,1,16,8,12,13,116
3.192132,3.140328,1,16,8,13,14,120
4.143375,-3.141425,1,16,8,14,15,124
4.170958,0.006252,1,1,9,2,3,128
2.802459,0.005609,1,1,9,3,4,132
2.157206,0.010559,1,1,9,4,5,136
2.438214,0.003079,1,1,9,5,6,140
2.774471,-0.003886,1,1,9,6,7,144
4.452852,0.002296,1,1,9,7,8,148
3.920188,-3.138661,1,1,9,10,11,152
2.746497,-3.134717,1,1,9,11,12,156
2.298488,-3.12279,1,1,9,12,13,160
2.913533,-3.138137,1,1,9,13,14,164
2.800588,-3.135903,1,1,9,14,15,168
4.14386,3.141441,1,1,9,15,16,172
4.172705,0.006543,1,2,10,3,4,176
2.43566,0.003584,1,2,10,4,5,180
2.493685,0.002159,1,2,10,5,6,184
2.438915,0.003422,1,2,10,6,7,188
2.997376,-0.007281,1,2,10,7,8,192
3.923399,0.003157,1,2,10,8,9,196
4.198297,3.141188,1,2,10,11,12,200
2.658223,3.140455,1,2,10,12,13,204
2.882888,3.136307,1,2,10,13,14,208
2.521863,-3.12891,1,2,10,14,15,212
2.746304,-3.134354,1,2,10,15,16,216
4.283455,3.133276,1,3,11,1,2,220
3.725625,-0.001421,1,3,11,4,5,224
2.861648,0.004463,1,3,11,5,6,228
2.495222,0.001946,1,3,11,6,7,232
2.717032,-0.002503,1,3,11,7,8,236
2.661036,-0.001463,1,3,11,8,9,240
4.175472,0.006373,1,3,11,9,10,244
3.923011,-3.13861,1,3,11,12,13,248
3.163965,3.131855,1,3,11,13,14,252
2.464972,-3.127378,1,3,11,14,15,0
2.435866,-3.138103,1,3,11,15,16,4
2.800351,-3.135808,1,4,12,1,2,8
4.256294,3.140012,1,4,12,2,3,12
4.487827,0.008061,1,4,12,5,6,16
2.829248,-0.004817,1,4,12,6,7,20
2.746019,0.006975,1,4,12,7,8,24
2.382888,0.004459,1,4,12,8,9,28
2.748332,0.006795,1,4,12,9,10,32
3.926278,0.002623,1,4,12,10,11,36
4.575296,-3.141034,1,4,12,13,14,40
2.805454,-3.136132,1,4,12,14,15,44
2.438868,-3.138528,1,4,12,15,16,48
2.525318,-3.129298,1,5,13,1,2,52
2.860368,-3.137105,1,5,13,2,3,56
4.512548,-3.13991,1,5,13,3,4,60
4.148111,-0.000253,1,5,13,6,7,64
2.975058,0.002042,1,5,13,7,8,68
2.327027,0.005961,1,5,13,8,9,72
2.3829,0.004549,1,5,13,9,10,76
2.60631,-0.000537,1,5,13,10,11,80
4.032745,0.001382,1,5,13,11,12,84
4.20104,3.140839,1,5,13,14,15,88
2.690569,-3.13322,1,5,13,15,16,92
2.49426,-3.139311,1,6,14,1,2,96
2.496562,-3.139675,1,6,14,2,3,100
2.860019,-3.136875,1,6,14,3,4,104
3.75023,3.132543,1,6,14,4,5,108
4.346488,0.00391,1,6,14,7,8,112
2.659635,-0.001255,1,6,14,8,9,116
2.409756,0.015826,1,6,14,9,10,120
2.271074,0.00758,1,6,14,10,11,124
2.660235,-0.001223,1,6,14,11,12,128
3.86839,0.003925,1,6,14,12,13,132
4.0362,-3.140122,1,6,14,15,16,136
2.773245,3.13782,1,7,15,1,2,140
2.436186,-3.138155,1,7,15,2,3,144
2.548973,-3.140697,1,7,15,3,4,148
2.493567,-3.139476,1,7,15,4,5,152
4.089008,-3.140706,1,7,15,5,6,156
3.980671,0.002246,1,7,15,8,9,160
2.717173,-0.002371,1,7,15,9,10,164
2.26989,0.007877,1,7,15,10,11,168
2.325616,0.006353,1,7,15,11,12,172
2.547081,0.001249,1,7,15,12,13,176
4.508794,0.002041,1,7,15,13,14,180
4.172312,-3.135134,1,8,16,1,2,184
2.774264,3.13798,1,8,16,2,3,188
2.550784,-3.140825,1,8,16,3,4,192
2.183363,3.139085,1,8,16,4,5,196
2.803014,-3.135636,1,8,16,5,6,200
4.120019,-3.134317,1,8,16,6,7,204
4.145246,0.000233,1,8,16,9,10,208
2.602294,-5.1e-05,1,8,16,10,11,212
2.380716,0.005002,1,8,16,11,12,216
2.268385,0.008047,1,8,16,12,13,220
3.222498,0.006932,1,8,16,13,14,224
4.09049,0.000957,1,8,16,14,15,228
4.256094,3.13997,1,9,1,2,3,232
2.857166,-3.137089,1,9,1,3,4,236
2.157784,-3.131048,1,9,1,4,5,240
2.54836,-3.140998,1,9,1,5,6,244
2.857677,-3.137099,1,9,1,6,7,248
4.505889,-3.139875,1,9,1,7,8,252
3.859217,0.003919,1,9,1,10,11,0
2.689809,0.008119,1,9,1,11,12,4
2.269621,0.007346,1,9,1,12,13,8
2.883455,-0.005789,1,9,1,13,14,12
2.743567,0.007024,1,9,1,14,15,16
4.087276,0.000507,1,9,1,15,16,20
4.231117,-3.13606,1,10,2,3,4,24
2.523749,-3.129175,1,10,2,4,5,28
2.548302,-3.140593,1,10,2,5,6,32
2.547619,-3.140579,1,10,2,6,7,36
3.081384,-3.1411,1,10,2,7,8,40
4.002516,3.136624,1,10,2,8,9,44
4.14172,0.000234,1,10,2,11,12,48
2.57548,0.01133,1,10,2,12,13,52
2.883768,-0.005437,1,10,2,13,14,56
2.465736,0.014153,1,10,2,14,15,60
2.689254,0.008444,1,10,2,15,16,64
4.223806,-0.007664,1,11,3,1,2,68
3.778438,3.139348,1,11,3,4,5,72
2.914835,-3.138161,1,11,3,5,6,76
2.606543,3.14105,1,11,3,6,7,80
2.773942,-3.124916,1,11,3,7,8,84
2.770925,3.13809,1,11,3,8,9,88
4.198236,3.14092,1,11,3,9,10,92
3.866297,0.003865,1,11,3,12,13,96
3.137081,-0.00061,1,11,3,13,14,100
2.43661,0.003339,1,11,3,14,15,104
2.382698,0.004643,1,11,3,15,16,108
2.747711,0.006762,1,12,4,1,2,112
4.201375,-0.000937,1,12,4,2,3,116
4.565336,-3.140691,1,12,4,5,6,120
2.94173,-3.129216,1,12,4,6,7,124
2.80482,-3.136164,1,12,4,7,8,128
2.437766,-3.138593,1,12,4,8,9,132
2.80022,-3.135851,1,12,4,9,10,136
3.922603,-3.138873,1,12,4,10,11,140
4.536809,0.007375,1,12,4,13,14,144
2.714694,-0.002681,1,12,4,14,15,148
2.379808,0.004574,1,12,4,15,16,152
2.43661,0.003339,1,13,5,1,2,156
2.855422,0.004805,1,13,5,2,3,160
4.446978,0.002725,1,13,5,3,4,164
4.197664,3.140882,1,13,5,6,7,168
3.050099,-3.131237,1,13,5,7,8,172
2.432835,-3.137946,1,13,5,8,9,176
2.463328,-3.127297,1,13,5,9,10,180
