BIOZ1_TOMO,EXC_FREQ_KHZ,GND_OUTPUT,EXC_OUTPUT,SENSE_OUTPUT,PACKET_NUMBER
53.99789305339182,10,3,16,11,21
54.921004686660446,10,3,16,12,24
56.05896166435901,10,3,16,13,28
58.452227785401384,10,3,16,14,32
61.82125594251196,10,3,16,15,36
105.55117896664447,10,3,16,16,40
44.66576380118419,10,4,5,1,48
43.84910743399882,10,4,5,2,52
41.672223639435806,10,4,5,3,56
89.77182987927027,10,4,5,5,60
50.84444365862158,10,4,5,6,64
48.398894343253296,10,4,5,7,68
47.67383772341603,10,4,5,8,72
47.20007512142493,10,4,5,9,76
46.83898754077005,10,4,5,10,80
46.55130539432661,10,4,5,11,84
46.23318139037216,10,4,5,12,88
46.07900642366499,10,4,5,13,92
45.89295872499527,10,4,5,14,96
45.496647081069156,10,4,5,15,100
45.15139042377671,10,4,5,16,104
49.082606464302515,10,4,6,1,112
47.642060857132996,10,4,6,2,116
44.55028451771823,10,4,6,3,120
50.81171934039592,10,4,6,5,124
103.22019810818774,10,4,6,6,128
58.823853165893844,10,4,6,7,132
55.66531719676313,10,4,6,8,136
54.317067422839436,10,4,6,9,140
53.36500652502049,10,4,6,10,144
52.742682227955484,10,4,6,11,148
52.082002214407346,10,4,6,12,152
51.69956982103966,10,4,6,13,156
51.18487866224809,10,4,6,14,160
50.52243592397715,10,4,6,15,164
49.861782814694735,10,4,6,16,168
50.98915483270136,10,4,7,1,176
49.15127131744482,10,4,7,2,180
45.48555466203329,10,4,7,3,184
48.486232888536286,10,4,7,5,188
58.90892535972697,10,4,7,6,192
108.99154440516118,10,4,7,7,196
63.35384253236252,10,4,7,8,200
59.569980582252654,10,4,7,9,204
57.65160352451866,10,4,7,10,208
56.47885366340824,10,4,7,11,212
55.472237314797695,10,4,7,12,216
54.70753758305164,10,4,7,13,220
53.96591647234051,10,4,7,14,224
53.039106775386074,10,4,7,15,228
52.10986188861738,10,4,7,16,232
52.2140101475788,10,4,8,1,240
50.07715887705736,10,4,8,2,244
46.067628868768416,10,4,8,3,248
47.665970177952374,10,4,8,5,252
55.65676308423835,10,4,8,6,0
63.23999734401283,10,4,8,7,4
111.92668964896387,10,4,8,8,8
66.39678948513757,10,4,8,9,12
61.81102122785127,10,4,8,10,16
59.77252051828773,10,4,8,11,20
58.18786854067392,10,4,8,12,24
57.05897210287484,10,4,8,13,28
56.01374585245374,10,4,8,14,32
54.82274182617666,10,4,8,15,36
53.60491051757347,10,4,8,16,40
53.16578406841425,10,4,9,1,48
50.77528261083225,10,4,9,2,52
46.46178363231088,10,4,9,3,56
47.186451185681044,10,4,9,5,60
54.3064202424024,10,4,9,6,64
59.45118929400967,10,4,9,7,68
66.39015438589192,10,4,9,8,72
111.54088523433326,10,4,9,9,76
67.60361877757356,10,4,9,10,80
63.23999734401283,10,4,9,11,84
60.78682338567244,10,4,9,12,88
59.18629105847205,10,4,9,13,92
57.746323588016956,10,4,9,14,96
56.26528802025865,10,4,9,15,100
54.78338886663023,10,4,9,16,104
54.03953078836589,10,4,10,1,112
51.342982206690564,10,4,10,2,116
46.73863421399269,10,4,10,3,120
46.85925909947528,10,4,10,5,124
53.40607129397814,10,4,10,6,128
57.5866664397507,10,4,10,7,132
61.87659802952345,10,4,10,8,136
67.66183332437892,10,4,10,9,140
113.90051397982198,10,4,10,10,144
69.14503465861343,10,4,10,11,148
64.04837275422582,10,4,10,12,152
61.54392761150467,10,4,10,13,156
59.563485051760416,10,4,10,14,160
57.72287862942985,10,4,10,15,164
55.93250625686964,10,4,10,16,168
54.80917013719315,10,4,11,1,176
51.88472663295072,10,4,11,2,180
47.00246762058076,10,4,11,3,184
46.56506117490345,10,4,11,5,188
52.77285349447799,10,4,11,6,192
56.42527188495367,10,4,11,7,196
59.78468097230172,10,4,11,8,200
63.26566445041467,10,4,11,9,204
69.16089580294285,10,4,11,10,208
115.91316081858135,10,4,11,11,212
69.2432710618245,10,4,11,12,216
64.31712254927,10,4,11,13,220
61.48308182041714,10,4,11,14,224
59.12593372582423,10,4,11,15,228
56.97574084554186,10,4,11,16,232
55.63637388930019,10,4,12,1,240
52.35069875399004,10,4,12,2,244
47.26043681814728,10,4,12,3,248
46.33118522660177,10,4,12,5,252
52.1968084851172,10,4,12,6,0
55.503884956345985,10,4,12,7,4
58.29806474614764,10,4,12,8,8
60.905616453790245,10,4,12,9,12
64.13678042571708,10,4,12,10,16
69.28772701586965,10,4,12,11,20
114.8464747908898,10,4,12,12,24
69.42025257185512,10,4,12,13,28
64.05779026375897,10,4,12,14,32
60.81256548956583,10,4,12,15,36
58.165563282210734,10,4,12,16,40
56.53981629692505,10,4,13,1,48
52.925827681570794,10,4,13,2,52
47.52839447068066,10,4,13,3,56
46.0863262562054,10,4,13,5,60
51.68391704093939,10,4,13,6,64
54.673128733096824,10,4,13,7,68
57.12253543880562,10,4,13,8,72
59.21692971569277,10,4,13,9,76
61.53667617365066,10,4,13,10,80
64.31182667750502,10,4,13,11,84
69.32362429785857,10,4,13,12,88
115.02393112303044,10,4,13,13,92
68.72696958890018,10,4,13,14,96
63.134254601398666,10,4,13,15,100
59.597484137144264,10,4,13,16,104
57.72491412233245,10,4,14,1,112
53.62067327363881,10,4,14,2,116
47.84111397296124,10,4,14,3,120
45.81551965415786,10,4,14,5,124
51.186689506395254,10,4,14,6,128
53.88213300406541,10,4,14,7,132
55.9944670227456,10,4,14,8,136
57.737163151634974,10,4,14,9,140
59.528961686479555,10,4,14,10,144
61.43060418973068,10,4,14,11,148
63.9071066333823,10,4,14,12,152
68.67529711451763,10,4,14,13,156
113.5473080566452,10,4,14,14,160
67.70693905302755,10,4,14,15,164
61.681497326038034,10,4,14,16,168
59.509850927971385,10,4,15,1,176
54.47533999201545,10,4,15,2,180
48.21967405096997,10,4,15,3,184
45.56263268278072,10,4,15,5,188
50.65358443053217,10,4,15,6,192
53.0480174153802,10,4,15,7,196
54.940890458183866,10,4,15,8,200
56.37029282995733,10,4,15,9,204
57.772822744888146,10,4,15,10,208
59.20265035944519,10,4,15,11,212
60.81776228907419,10,4,15,12,216
63.173312928253296,10,4,15,13,220
67.75600205995102,10,4,15,14,224
112.31675158920679,10,4,15,15,228
65.87420803983517,10,4,15,16,232
63.4067245077642,10,4,16,1,240
55.86794612520881,10,4,16,2,244
48.72119964443177,10,4,16,3,248
45.19500835851092,10,4,16,5,252
49.9921635380803,10,4,16,6,0
52.13787382427962,10,4,16,7,4
53.6989612121209,10,4,16,8,8
54.92570908557291,10,4,16,9,12
56.01012325176615,10,4,16,10,16
57.05897210287484,10,4,16,11,20
58.18410497402996,10,4,16,12,24
59.66633774303969,10,4,16,13,28
61.7675780469547,10,4,16,14,32
65.86142595378514,10,4,16,15,36
109.84585338017162,10,4,16,16,40
41.991118590064985,10,5,6,1,48
41.38384351023771,10,5,6,2,52
40.472576417303834,10,5,6,3,56
37.59349871095354,10,5,6,4,60
90.0168888677768,10,5,6,6,64
47.994545985124105,10,5,6,7,68
45.60152342479228,10,5,6,8,72
44.743091569089565,10,5,6,9,76
44.76999696381214,10,5,6,10,80
44.41291679921027,10,5,6,11,84
43.43353366429759,10,5,6,12,88
43.830205031745336,10,5,6,13,92
42.96836394226724,10,5,6,14,96
42.653668173758405,10,5,6,15,100
42.34965163176416,10,5,6,16,104
46.28354785535054,10,5,7,1,112
45.22181963439641,10,5,7,2,116
43.7822676583689,10,5,7,3,120
39.98454634248353,10,5,7,4,124
48.000789045342216,10,5,7,6,128
100.98453996291425,10,5,7,7,132
55.641079805877894,10,5,7,8,136
52.28785955313745,10,5,7,9,140
51.39131918253894,10,5,7,10,144
50.47911122009529,10,5,7,11,148
49.15535351626487,10,5,7,12,152
49.20863584257757,10,5,7,13,156
48.069282667444334,10,5,7,14,160
47.48774702301674,10,5,7,15,164
46.931960658439266,10,5,7,16,168
48.318704828900984,10,5,8,1,176
46.99454685380077,10,5,8,2,180
45.16452268694769,10,5,8,3,184
40.74273335798113,10,5,8,4,188
45.574727138007496,10,5,8,6,192
55.81011023545016,10,5,8,7,196
105.0663649840053,10,5,8,8,200
59.994898658282835,10,5,8,9,204
56.365000717093466,10,5,8,10,208
54.591609537862055,10,5,8,11,212
52.711503067441235,10,5,8,12,216
52.38050996106445,10,5,8,13,220
50.96365819931228,10,5,8,14,224
50.08975503824579,10,5,8,15,228
49.2547178932181,10,5,8,16,232
49.74871100349737,10,5,9,1,240
48.119150834179194,10,5,9,2,244
45.98824789269224,10,5,9,3,248
41.21921921648494,10,5,9,4,252
44.661205200506515,10,5,9,6,0
52.40694457054215,10,5,9,7,4
59.985785129994795,10,5,9,8,8
105.5959898159248,10,5,9,9,12
62.67202756188676,10,5,9,10,16
58.550885308666395,10,5,9,11,20
55.747785267871635,10,5,9,12,24
54.978199427887304,10,5,9,13,28
53.1387597006588,10,5,9,14,32
52.052831005173125,10,5,9,15,36
50.8742732217211,10,5,9,16,40
50.93047337423759,10,5,10,1,48
49.086951211021315,10,5,10,2,52
46.689598459041044,10,5,10,3,56
41.593658174451825,10,5,10,4,60
44.15999232828555,10,5,10,6,64
50.71940621971392,10,5,10,7,68
55.77986274749125,10,5,10,8,72
62.059800465868015,10,5,10,9,76
109.34319700786654,10,5,10,10,80
64.82337722130112,10,5,10,11,84
59.39186911794446,10,5,10,12,88
57.69556640281963,10,5,10,13,92
55.29835408105109,10,5,10,14,96
53.814751126983715,10,5,10,15,100
52.37187644059123,10,5,10,16,104
52.002064526515404,10,5,11,1,112
49.85892309802766,10,5,11,2,116
47.23245654792161,10,5,11,3,120
41.870881223340255,10,5,11,4,124
43.77472993601553,10,5,11,6,128
49.8027169938642,10,5,11,7,132
53.96654988213975,10,5,11,8,136
57.964983975688945,10,5,11,9,140
64.80146920525523,10,5,11,10,144
111.9148444489095,10,5,11,11,148
64.78067883543515,10,5,11,12,152
60.69765914379751,10,5,11,13,156
57.48889788884361,10,5,11,14,160
55.526692623548854,10,5,11,15,164
53.69808223122881,10,5,11,16,168
53.088567920097326,10,5,12,1,176
50.6350292049264,10,5,12,2,180
47.759324207071955,10,5,12,3,184
42.116204294926426,10,5,12,4,188
43.43036531612939,10,5,12,6,192
49.11144879512289,10,5,12,7,196
52.74063265381367,10,5,12,8,200
55.81742093690221,10,5,12,9,204
60.072149159565015,10,5,12,10,208
65.4918687085005,10,5,12,11,212
111.13298869559567,10,5,12,12,216
66.1003222576213,10,5,12,13,220
60.28390945584258,10,5,12,14,224
57.44908222753809,10,5,12,15,228
55.12922823036445,10,5,12,16,232
54.22192309751631,10,5,13,1,240
51.42671221559551,10,5,13,2,244
48.24246457923225,10,5,13,3,248
42.35045390520913,10,5,13,4,252
43.16818109412447,10,5,13,6,0
48.547200371018555,10,5,13,7,4
51.78020043417943,10,5,13,8,8
54.35091323191576,10,5,13,9,12
57.69336998276933,10,5,13,10,16
60.7424588431856,10,5,13,11,20
65.39461111233622,10,5,13,12,24
111.95156652706707,10,5,13,13,28
65.21802186623555,10,5,13,14,32
59.98404180489818,10,5,13,15,36
56.7929774590185,10,5,13,16,40
55.676865697156046,10,5,14,1,48
52.34749966108926,10,5,14,2,52
48.8121959274894,10,5,14,3,56
42.556068287618004,10,5,14,4,60
42.89763897272734,10,5,14,6,64
48.01495062578935,10,5,14,7,68
50.9156123795284,10,5,14,8,72
53.13178215378518,10,5,14,9,76
55.92378040796694,10,5,14,10,80
58.109993275710394,10,5,14,11,84
60.28390945584258,10,5,14,12,88
65.84076893619019,10,5,14,13,92
110.30020300869668,10,5,14,14,96
64.7818214469702,10,5,14,15,100
59.101747470096875,10,5,14,16,104
57.71304414349916,10,5,15,1,112
53.46943109501783,10,5,15,2,116
49.41761065552664,10,5,15,3,120
42.85795452649684,10,5,15,4,124
42.592996070583844,10,5,15,6,128
47.45463932364145,10,5,15,7,132
50.120677033632354,10,5,15,8,136
52.04091182579691,10,5,15,9,140
54.44079874742847,10,5,15,10,144
56.14899146816672,10,5,15,11,148
57.40724443570683,10,5,15,12,152
60.56017707969274,10,5,15,13,156
64.77230027002611,10,5,15,14,160
109.59742531732641,10,5,15,15,164
63.55606238186439,10,5,15,16,168
61.94540168389712,10,5,16,1,176
55.250022336019164,10,5,16,2,180
50.28227569568388,10,5,16,3,184
43.15625499282936,10,5,16,4,188
42.28214385210937,10,5,16,6,192
46.91782173934187,10,5,16,7,196
49.28969489626375,10,5,16,8,200
50.93466499967536,10,5,16,9,204
52.997738063463665,10,5,16,10,208
54.349787271669584,10,5,16,11,212
55.11756224624575,10,5,16,12,216
57.408778681755585,10,5,16,13,220
59.09688356585653,10,5,16,14,224
63.54373405728575,10,5,16,15,228
107.82661387316774,10,5,16,16,232
44.827670608602375,10,6,7,1,240
44.44581766127799,10,6,7,2,244
44.44876894345533,10,6,7,3,248
42.91339050047725,10,6,7,4,252
40.60117269204155,10,6,7,5,0
93.58526049571807,10,6,7,7,4
51.145237893454684,10,6,7,8,8
48.146577021043804,10,6,7,9,12
47.23401040006848,10,6,7,10,16
46.66264832539737,10,6,7,11,20
46.28076729805439,10,6,7,12,24
46.01632742642203,10,6,7,13,28
46.24330340919587,10,6,7,14,32
45.40864166649377,10,6,7,15,36
45.147121220943916,10,6,7,16,40
49.34212388023505,10,6,8,1,48
48.626972956167776,10,6,8,2,52
48.28482717150993,10,6,8,3,56
46.176583125930236,10,6,8,4,60
43.04463835514683,10,6,8,5,64
50.62005418759019,10,6,8,7,68
103.12013378213217,10,6,8,8,72
58.64374736798761,10,6,8,9,76
54.64582556111673,10,6,8,10,80
53.257714987146095,10,6,8,11,84
52.28732916685064,10,6,8,12,88
51.58694573292249,10,6,8,13,92
51.605144386557726,10,6,8,14,96
50.452329978600105,10,6,8,15,100
49.89718920849573,10,6,8,16,104
51.60119128302664,10,6,9,1,112
50.64782664011351,10,6,9,2,116
49.99871132671021,10,6,9,3,120
47.53478238356233,10,6,9,4,124
43.91194217204718,10,6,9,5,128
48.18588150025072,10,6,9,7,132
58.93455307699229,10,6,9,8,136
105.36403179130684,10,6,9,9,140
61.80463835585222,10,6,9,10,144
58.0462608812084,10,6,9,11,148
56.25843911216488,10,6,9,12,152
55.04188283629522,10,6,9,13,156
54.70872693731786,10,6,9,14,160
53.21570695631983,10,6,9,15,164
52.41796662321394,10,6,9,16,168
53.35855156832841,10,6,10,1,176
52.13815024473928,10,6,10,2,180
51.23968916589855,10,6,10,3,184
48.43162809293598,10,6,10,4,188
44.46179356442368,10,6,10,5,192
47.21409152723037,10,6,10,7,196
55.211861999863196,10,6,10,8,200
62.10916204626377,10,6,10,9,204
109.30379146078198,10,6,10,10,208
64.92976900108206,10,6,10,11,212
60.77200593808148,10,6,10,12,216
58.33470582684645,10,6,10,13,220
57.3817133831592,10,6,10,14,224
55.55700977750599,10,6,10,15,228
54.455214145349615,10,6,10,16,232
54.779348591362826,10,6,11,1,240
53.299426883711526,10,6,11,2,244
52.13202610467673,10,6,11,3,248
49.07420144536477,10,6,11,4,252
44.82376740624303,10,6,11,5,0
46.66378300645733,10,6,11,7,4
53.7484969321893,10,6,11,8,8
58.288871048019416,10,6,11,9,12
64.8633158321938,10,6,11,10,16
112.48138623694415,10,6,11,11,20
66.64926997519835,10,6,11,12,24
61.720470436917964,10,6,11,13,28
59.93591542023315,10,6,11,14,32
57.61383596754321,10,6,11,15,36
56.16894670579774,10,6,11,16,40
56.14392555394587,10,6,12,1,48
54.39553260228776,10,6,12,2,52
52.966471092162266,10,6,12,3,56
49.59118432812112,10,6,12,4,60
45.16480415072738,10,6,12,5,64
46.26414442128865,10,6,12,7,68
52.86063167325436,10,6,12,8,72
56.50179453811562,10,6,12,9,76
60.40893609528565,10,6,12,10,80
66.25136821654142,10,6,12,11,84
112.80693135392285,10,6,12,12,88
67.354280533841,10,6,12,13,92
63.125601412425,10,6,12,14,96
59.87893558644523,10,6,12,15,100
57.91848083485477,10,6,12,16,104
57.57451558299895,10,6,13,1,112
55.45258733049979,10,6,13,2,116
53.75545084614486,10,6,13,3,120
50.11383039272569,10,6,13,4,124
45.39614086286545,10,6,13,5,128
45.965627460659455,10,6,13,7,132
52.13969031136225,10,6,13,8,136
55.23725292117655,10,6,13,9,140
58.32729497634777,10,6,13,10,144
61.772140271204165,10,6,13,11,148
67.7884594096351,10,6,13,12,152
113.86823107282056,10,6,13,13,156
68.29223925862388,10,6,13,14,160
62.64779736514566,10,6,13,15,164
59.811205858394224,10,6,13,16,168
59.29183761070762,10,6,14,1,176
56.63265202305347,10,6,14,2,180
54.61938266176469,10,6,14,3,184
50.6373398262876,10,6,14,4,188
45.66113265219459,10,6,14,5,192
45.700633613642744,10,6,14,7,196
51.58495901075669,10,6,14,8,200
54.380192861496674,10,6,14,9,204
56.8271990647081,10,6,14,10,208
59.370118363721595,10,6,14,11,212
62.75297145146585,10,6,14,12,216
67.70990876244701,10,6,14,13,220
113.71548962241755,10,6,14,14,224
67.74965103116027,10,6,14,15,228
62.37760330078937,10,6,14,16,232
61.61339345136216,10,6,15,1,240
58.059513962392806,10,6,15,2,244
55.517605377552755,10,6,15,3,248
51.16017192579418,10,6,15,4,252
45.929096092372994,10,6,15,5,0
45.44884755359772,10,6,15,7,4
51.09357278561506,10,6,15,8,8
53.59882957234152,10,6,15,9,12
55.624734283829426,10,6,15,10,16
57.67824048876337,10,6,15,11,20
59.94373131589339,10,6,15,12,24
62.73952145537277,10,6,15,13,28
68.40695357351755,10,6,15,14,32
113.45738831797459,10,6,15,15,36
67.08581565779511,10,6,15,16,40
66.16287095334289,10,6,16,1,48
60.10815397769576,10,6,16,2,52
56.73232447358479,10,6,16,3,56
51.85563614106497,10,6,16,4,60
46.26713703374206,10,6,16,5,64
45.180941257433396,10,6,16,7,68
50.52077986095471,10,6,16,8,72
52.81067959003187,10,6,16,9,76
54.47826941543003,10,6,16,10,80
56.226810319120624,10,6,16,11,84
57.92222731215803,10,6,16,12,88
59.84313696431061,10,6,16,13,92
63.090022752643435,10,6,16,14,96
67.13017778065442,10,6,16,15,100
112.21656913121225,10,6,16,16,104
45.540405869466746,10,7,8,1,112
45.84852698075142,10,7,8,2,116
44.78957375346983,10,7,8,3,120
44.273868737761134,10,7,8,4,124
43.38504904858083,10,7,8,5,128
40.99450693670334,10,7,8,6,132
93.12335043941351,10,7,8,8,136
51.097957854655206,10,7,8,9,140
48.69067041279044,10,7,8,10,144
47.48735102452595,10,7,8,11,148
47.68573763864727,10,7,8,12,152
46.82607932336217,10,7,8,13,156
46.27067296598923,10,7,8,14,160
46.059074406166275,10,7,8,15,164
45.79459510327517,10,7,8,16,168
50.28635982806807,10,7,9,1,176
50.3250003240468,10,7,9,2,180
48.96304385751377,10,7,9,3,184
48.089589912049455,10,7,9,4,188
46.78245464886967,10,7,9,5,192
43.457859075656415,10,7,9,6,196
51.08086376691129,10,7,9,8,200
100.07228391936196,10,7,9,9,204
58.456110081476915,10,7,9,10,208
54.984000540646235,10,7,9,11,212
54.07460900779212,10,7,9,12,216
52.86703367485367,10,7,9,13,220
51.835080696996485,10,7,9,14,224
51.31881261758889,10,7,9,15,228
50.74973613958965,10,7,9,16,232
53.00593895955177,10,7,10,1,240
52.75807002435266,10,7,10,2,244
51.12543040997369,10,7,10,3,248
49.907025548417,10,7,10,4,252
48.25167354009607,10,7,10,5,0
44.398320167193916,10,7,10,6,4
48.41469732247665,10,7,10,8,8
58.05337616815011,10,7,10,9,12
106.85991792767946,10,7,10,10,16
63.03226429819034,10,7,10,11,20
59.16344895535646,10,7,10,12,24
57.234797810855824,10,7,10,13,28
55.49573901565686,10,7,10,14,32
54.625190708617296,10,7,10,15,36
53.7883375411383,10,7,10,16,40
54.954057668742834,10,7,11,1,48
54.485006302808024,10,7,11,2,52
52.594562165205666,10,7,11,3,56
51.07078065059159,10,7,11,4,60
49.136512323221474,10,7,11,5,64
44.90724794710213,10,7,11,6,68
47.517051747187466,10,7,11,8,72
54.80859599889372,10,7,11,9,76
63.11579463060759,10,7,11,10,80
111.19307150735371,10,7,11,11,84
65.5219045216252,10,7,11,12,88
61.23421819119608,10,7,11,13,92
58.57071831683951,10,7,11,14,96
57.21905843374606,10,7,11,15,100
56.036116850434176,10,7,11,16,104
56.71876642643713,10,7,12,1,112
55.936273258339114,10,7,12,2,116
53.77824134307838,10,7,12,3,120
52.02821138179989,10,7,12,4,124
49.8427930347807,10,7,12,5,128
45.31424687064257,10,7,12,6,132
46.95430234141124,10,7,12,8,136
53.32794325439754,10,7,12,9,140
59.01186857634835,10,7,12,10,144
65.28067118380723,10,7,12,11,148
112.00819946344485,10,7,12,12,152
67.2550613530973,10,7,12,13,156
62.060118482134186,10,7,12,14,160
59.84761528130211,10,7,12,15,164
58.15116619233737,10,7,12,16,168
58.47110928246061,10,7,13,1,176
57.247067165224614,10,7,13,2,180
54.87560267774382,10,7,13,3,184
52.837723896571184,10,7,13,4,188
50.4255878551596,10,7,13,5,192
45.62784684996624,10,7,13,6,196
46.621839066032194,10,7,13,8,200
52.46694348570268,10,7,13,9,204
57.197890518350654,10,7,13,10,208
61.10855831150706,10,7,13,11,212
67.37795594871471,10,7,13,12,216
113.8564197613514,10,7,13,13,220
67.54017111399381,10,7,13,14,224
62.92215593328292,10,7,13,15,228
60.34146576279458,10,7,13,16,232
60.44809524342229,10,7,14,1,240
58.73631772998102,10,7,14,2,244
55.98014875164862,10,7,14,3,248
53.61728287570155,10,7,14,4,252
50.993088986853756,10,7,14,5,0
45.881289150495945,10,7,14,6,4
46.27887345001352,10,7,14,8,8
51.81828508377839,10,7,14,9,12
55.9265366263301,10,7,14,10,16
58.88266821053524,10,7,14,11,20
62.75270407749495,10,7,14,12,24
68.16139553837233,10,7,14,13,28
113.76196785023554,10,7,14,14,32
68.28258563617409,10,7,14,15,36
63.218303079325786,10,7,14,16,40
63.02294034598964,10,7,15,1,48
60.410172969321124,10,7,15,2,52
57.10605558812692,10,7,15,3,56
54.40287014034938,10,7,15,4,60
51.51765473231037,10,7,15,5,64
46.18829407565348,10,7,15,6,68
46.013005528589034,10,7,15,8,72
51.25168013761022,10,7,15,9,76
54.962602223018465,10,7,15,10,80
57.34893294609199,10,7,15,11,84
60.489849139679684,10,7,15,12,88
63.39354362800204,10,7,15,13,92
68.20716415826315,10,7,15,14,96
113.69249036946614,10,7,15,15,100
68.20716415826315,10,7,15,16,104
67.85789396421468,10,7,16,1,112
62.75270407749495,10,7,16,2,116
58.591729974410605,10,7,16,3,120
55.370372099910895,10,7,16,4,124
52.138667807661115,10,7,16,5,128
46.44953795750166,10,7,16,6,132
45.761177797381556,10,7,16,8,136
50.73462042357237,10,7,16,9,140
54.127584218670144,10,7,16,10,144
56.12567521740264,10,7,16,11,148
58.776148111679525,10,7,16,12,152
60.822692521365084,10,7,16,13,156
63.142604066260276,10,7,16,14,160
68.20275180234356,10,7,16,15,164
113.08354642660233,10,7,16,16,168
45.09082341037408,10,8,9,1,176
44.82643884028739,10,8,9,2,180
45.15832388940007,10,8,9,3,184
44.12376302416887,10,8,9,4,188
43.69038621084999,10,8,9,5,192
43.35785777539807,10,8,9,6,196
40.422943223273975,10,8,9,7,200
89.91304294927731,10,8,9,9,204
49.95665884405477,10,8,9,10,208
47.60338818662663,10,8,9,11,212
46.72784491461328,10,8,9,12,216
46.21146652103234,10,8,9,13,220
46.52970673657054,10,8,9,14,224
45.56456211581688,10,8,9,15,228
45.303113033593625,10,8,9,16,232
50.501428868270494,10,8,10,1,240
49.97206904827984,10,8,10,2,244
50.038002763323775,10,8,10,3,248
48.674943432029934,10,8,10,4,252
47.89408548476676,10,8,10,5,0
47.07682343964614,10,8,10,6,4
43.03799992535116,10,8,10,7,8
50.48798846989787,10,8,10,9,12
100.83192136462772,10,8,10,10,16
58.126764384662515,10,8,10,11,20
54.5915067836542,10,8,10,12,24
53.16182021309163,10,8,10,13,28
52.90983796880786,10,8,10,14,32
51.547960473097945,10,8,10,15,36
50.9910472512989,10,8,10,16,40
53.38083401775357,10,8,11,1,48
52.549908344733616,10,8,11,2,52
52.38718145296673,10,8,11,3,56
50.72207631046782,10,8,11,4,60
49.662614653133645,10,8,11,5,64
48.49395638652589,10,8,11,6,68
43.94135714037808,10,8,11,7,72
48.122261213608674,10,8,11,9,76
58.12656046867827,10,8,11,10,80
106.97433239291746,10,8,11,11,84
61.782947252873896,10,8,11,12,88
58.043157229470225,10,8,11,13,92
56.87671581700821,10,8,11,14,96
55.06322828812756,10,8,11,15,100
54.11297687879743,10,8,11,16,104
55.70091588839788,10,8,12,1,112
54.558088146303106,10,8,12,2,116
54.13352045614998,10,8,12,3,120
52.200066475189985,10,8,12,4,124
50.94152882041473,10,8,12,5,128
49.3948657547715,10,8,12,6,132
44.480500037306484,10,8,12,7,136
47.30274264481147,10,8,12,9,140
54.59789882734706,10,8,12,10,144
61.84475478643896,10,8,12,11,148
109.27470276253739,10,8,12,12,152
64.60458416020373,10,8,12,13,156
60.93856360545435,10,8,12,14,160
58.41296063998301,10,8,12,15,164
56.78273961137417,10,8,12,16,168
57.77040737713325,10,8,13,1,176
56.286118767495225,10,8,13,2,180
55.59630334029728,10,8,13,3,184
53.393816746408326,10,8,13,4,188
51.873268604478874,10,8,13,5,192
50.09654933844491,10,8,13,6,196
44.849762265732274,10,8,13,7,200
46.79746412902872,10,8,13,9,204
53.17115626033795,10,8,13,10,208
58.02243318616216,10,8,13,11,212
64.56971288821036,10,8,13,12,216
111.42356178221269,10,8,13,13,220
66.80793342583671,10,8,13,14,224
61.9315174033424,10,8,13,15,228
59.42322847863668,10,8,13,16,232
60.050750979315126,10,8,14,1,240
58.04017433975897,10,8,14,2,244
57.01767642310821,10,8,14,3,248
54.501540911962664,10,8,14,4,252
52.71238937904638,10,8,14,5,0
50.71018873777908,10,8,14,6,4
45.145717874213155,10,8,14,7,8
46.41795270132795,10,8,14,9,12
52.26197768684989,10,8,14,10,16
56.23328922668577,10,8,14,11,20
60.25782219614763,10,8,14,12,24
66.19211062610486,10,8,14,13,28
112.82102520508737,10,8,14,14,32
67.79495538564859,10,8,14,15,36
62.810254753109,10,8,14,16,40
62.93503453388482,10,8,15,1,48
60.00854240461608,10,8,15,2,52
58.44072013155491,10,8,15,3,56
55.59558114311639,10,8,15,4,60
53.53669139030638,10,8,15,5,64
51.231186136939904,10,8,15,6,68
45.4534260049815,10,8,15,7,72
46.1580930673036,10,8,15,9,76
51.61586213533016,10,8,15,10,80
55.061925247443135,10,8,15,11,84
58.2599070005407,10,8,15,12,88
61.75932100910373,10,8,15,13,92
68.0417448371704,10,8,15,14,96
113.61728691097207,10,8,15,15,100
68.24117480676277,10,8,15,16,104
68.04191227278123,10,8,16,1,112
62.621303726986724,10,8,16,2,116
60.19408122001726,10,8,16,3,120
56.77528662479758,10,8,16,4,124
54.415894936534634,10,8,16,5,128
51.7646036525326,10,8,16,6,132
45.7214181234958,10,8,16,7,136
45.890887998540066,10,8,16,9,140
51.00619083488952,10,8,16,10,144
54.150847060399656,10,8,16,11,148
56.77528662479758,10,8,16,12,152
59.43965338991156,10,8,16,13,156
63.242940620397654,10,8,16,14,160
68.33380305916353,10,8,16,15,164
113.48589973457065,10,8,16,16,168
45.34054918573232,10,9,10,1,176
45.03725119690897,10,9,10,2,180
45.303007428802275,10,9,10,3,184
44.416530106250505,10,9,10,4,188
44.125764927294675,10,9,10,5,192
43.6498316432609,10,9,10,6,196
42.591991079476024,10,9,10,7,200
40.46466765955752,10,9,10,8,204
90.7841667647937,10,9,10,10,208
50.37786577159247,10,9,10,11,212
47.73543480483484,10,9,10,12,216
46.82305687185876,10,9,10,13,220
46.823355613800715,10,9,10,14,224
46.387046768455555,10,9,10,15,228
45.97699097330854,10,9,10,16,232
50.54166014298526,10,9,11,1,240
49.917165254980546,10,9,11,2,244
50.022180343625394,10,9,11,3,248
48.795086421006296,10,9,11,4,252
48.22584925713316,10,9,11,5,0
47.563260963054105,10,9,11,6,4
45.82607867977585,10,9,11,7,8
42.808996243829284,10,9,11,8,12
50.39286742834239,10,9,11,10,16
101.57561004785876,10,9,11,11,20
57.29117404074032,10,9,11,12,24
54.021046908657596,10,9,11,13,28
53.16360893132662,10,9,11,14,32
52.28897617811201,10,9,11,15,36
51.52212389939838,10,9,11,16,40
53.69854576442557,10,9,12,1,48
52.825387651841545,10,9,12,2,52
52.652030634447506,10,9,12,3,56
51.16897803666461,10,9,12,4,60
50.33379123593708,10,9,12,5,64
49.408508000024185,10,9,12,6,68
47.23585937953193,10,9,12,7,72
43.66127875196122,10,9,12,8,76
47.75007585835772,10,9,12,10,80
57.261600823507436,10,9,12,11,84
105.16137606374893,10,9,12,12,88
61.40746235073934,10,9,12,13,92
58.121415218508865,10,9,12,14,96
56.36013701159761,10,9,12,15,100
55.127584601486916,10,9,12,16,104
56.28821740834579,10,9,13,1,112
55.068253572767695,10,9,13,2,116
54.59439623064272,10,9,13,3,120
52.84246706197696,10,9,13,4,124
51.800107841819894,10,9,13,5,128
50.6464651368442,10,9,13,6,132
48.11700523597006,10,9,13,7,136
44.195412332999375,10,9,13,8,140
46.80459387252185,10,9,13,10,144
53.973148067274686,10,9,13,11,148
61.48514422578413,10,9,13,12,152
108.82040838807518,10,9,13,13,156
64.50517761997934,10,9,13,14,160
60.3060350468032,10,9,13,15,164
58.21146415044697,10,9,13,16,168
58.9730807615256,10,9,14,1,176
57.21459540447806,10,9,14,2,180
56.39228156047521,10,9,14,3,184
54.33525782128786,10,9,14,4,188
53.021578543193876,10,9,14,5,192
51.511873523251275,10,9,14,6,196
48.789734118626406,10,9,14,7,200
44.50736530291959,10,9,14,8,204
46.24254707445596,10,9,14,10,208
52.586184395177504,10,9,14,11,212
57.518406585447636,10,9,14,12,216
63.85022711440237,10,9,14,13,220
110.85635866039574,10,9,14,14,224
66.4276638615884,10,9,14,15,228
61.79408988199982,10,9,14,16,232
62.11701601467111,10,9,15,1,240
59.50053572332752,10,9,15,2,244
58.14794180997692,10,9,15,3,248
55.69770673050536,10,9,15,4,252
54.11962675599998,10,9,15,5,0
52.321265857320206,10,9,15,6,4
49.36273014482874,10,9,15,7,8
44.817844616463475,10,9,15,8,12
45.90696196458977,10,9,15,10,16
51.71987344489463,10,9,15,11,20
55.777354634542476,10,9,15,12,24
59.75364042849443,10,9,15,13,28
66.35341332449165,10,9,15,14,32
112.36359420823462,10,9,15,15,36
67.4005851119257,10,9,15,16,40
67.48159171986359,10,9,16,1,48
62.38205857768293,10,9,16,2,52
60.15425540814194,10,9,16,3,56
57.18586388457584,10,9,16,4,60
55.21103878518253,10,9,16,5,64
53.15619923733534,10,9,16,6,68
49.886069625007515,10,9,16,7,72
45.03557928926715,10,9,16,8,76
45.60216219001471,10,9,16,10,80
51.062417956051,10,9,16,11,84
54.601293374505524,10,9,16,12,88
57.702948076787045,10,9,16,13,92
61.811170112569734,10,9,16,14,96
67.40494531081909,10,9,16,15,100
112.75464086196772,10,9,16,16,104
46.2245888781225,10,10,11,1,112
46.248009484450925,10,10,11,2,116
45.56329426316159,10,10,11,3,120
45.298776422789835,10,10,11,4,124
45.69179872603181,10,10,11,5,128
44.689567112642436,10,10,11,6,132
44.45228787515249,10,10,11,7,136
43.28763016814965,10,10,11,8,140
41.00825875332491,10,10,11,9,144
92.81944244146533,10,10,11,11,148
50.903516311701566,10,10,11,12,152
48.78952430218896,10,10,11,13,156
47.2005244695861,10,10,11,14,160
46.81687163290366,10,10,11,15,164
46.43624836286612,10,10,11,16,168
52.024895539076134,10,10,12,1,176
51.87554035566268,10,10,12,2,180
50.92611258839085,10,10,12,3,184
50.35683346497996,10,10,12,4,188
50.499554736262965,10,10,12,5,192
49.136440212478306,10,10,12,6,196
48.64636331092906,10,10,12,7,200
46.76605359919675,10,10,12,8,204
43.63151828146884,10,10,12,9,208
51.173947881410164,10,10,12,11,212
101.58687675163233,10,10,12,12,216
58.866606061888504,10,10,12,13,220
54.8428132035321,10,10,12,14,224
53.53114555049971,10,10,12,15,228
52.67374988366379,10,10,12,16,232
55.537925510367295,10,10,13,1,240
55.00730976545231,10,10,13,2,244
53.75037979718236,10,10,13,3,248
52.914927965413696,10,10,13,4,252
52.83470230905175,10,10,13,5,0
51.21914640132232,10,10,13,6,4
50.410831943735054,10,10,13,7,8
48.19585304516828,10,10,13,8,12
44.5298199050099,10,10,13,9,16
48.768226530601666,10,10,13,11,20
58.752679993270924,10,10,13,12,24
107.18305333096431,10,10,13,13,28
62.12381277874381,10,10,13,14,32
58.37312957152715,10,10,13,15,36
56.664241418658435,10,10,13,16,40
58.747881399829055,10,10,14,1,48
57.77966006887091,10,10,14,2,52
56.06762508305054,10,10,14,3,56
54.94107341283367,10,10,14,4,60
54.59927578070804,10,10,14,5,64
52.71493563444374,10,10,14,6,68
51.6942866291521,10,10,14,7,72
49.08766159089343,10,10,14,8,76
45.06995200706587,10,10,14,9,80
47.90811248828959,10,10,14,11,84
55.36450670781743,10,10,14,12,88
62.74530820356019,10,10,14,13,92
109.05366211474292,10,10,14,14,96
64.93736244927327,10,10,14,15,100
60.69258486402008,10,10,14,16,104
62.245653715547824,10,10,15,1,112
60.45499412392629,10,10,15,2,116
58.189375440257244,10,10,15,3,120
56.74201627471571,10,10,15,4,124
56.055434719305325,10,10,15,5,128
53.89614666940982,10,10,15,6,132
52.692517800110025,10,10,15,7,136
49.80278691191433,10,10,15,8,140
45.46891134388655,10,10,15,9,144
47.36084663513023,10,10,15,11,148
54.026927331179344,10,10,15,12,152
58.9306464226207,10,10,15,13,156
64.89727535452785,10,10,15,14,160
111.26559673192442,10,10,15,15,164
66.64816767022278,10,10,15,16,168
67.94331335358414,10,10,16,1,176
63.60582291558469,10,10,16,2,180
60.50490375300185,10,10,16,3,184
58.50286229909973,10,10,16,4,188
57.490746151269136,10,10,16,5,192
55.042108069701285,10,10,16,6,196
53.5143581721325,10,10,16,7,200
50.36377841858199,10,10,16,8,204
45.77751261378363,10,10,16,9,208
47.02324328908062,10,10,16,11,212
53.12365694348622,10,10,16,12,216
57.282260919944825,10,10,16,13,220
60.63743175154436,10,10,16,14,224
66.65796730916024,10,10,16,15,228
112.32820914659199,10,10,16,16,232
48.052820726017096,10,11,12,1,240
47.70892498038637,10,11,12,2,244
47.484068227717344,10,11,12,3,248
47.1768086632851,10,11,12,4,252
47.59024256791405,10,11,12,5,0
46.611109577558274,10,11,12,6,4
46.21430684345135,10,11,12,7,8
45.73816651383342,10,11,12,8,12
44.878554395991166,10,11,12,9,16
42.73674417612738,10,11,12,10,20
93.20897832028473,10,11,12,12,24
52.94672174000353,10,11,12,13,28
49.74271873565073,10,11,12,14,32
48.92580115343268,10,11,12,15,36
48.396730931257615,10,11,12,16,40
53.995238055508146,10,11,13,1,48
53.24058889105533,10,11,13,2,52
52.733766347098566,10,11,13,3,56
52.15375532429411,10,11,13,4,60
52.33975969406822,10,11,13,5,64
51.10856158097629,10,11,13,6,68
50.42083459956638,10,11,13,7,72
49.54603754241034,10,11,13,8,76
48.14252186896319,10,11,13,9,80
45.13456167685626,10,11,13,10,84
52.27060639524645,10,11,13,12,88
103.60137477089717,10,11,13,13,92
59.438280367461395,10,11,13,14,96
56.21635037441791,10,11,13,15,100
54.81637406425026,10,11,13,16,104
58.08517694773156,10,11,14,1,112
57.0432282095845,10,11,14,2,116
55.942670459031646,10,11,14,3,120
55.06113271722955,10,11,14,4,124
54.98471923561958,10,11,14,5,128
53.44846053451436,10,11,14,6,132
52.481452155610356,10,11,14,7,136
51.30333142717417,10,11,14,8,140
49.55381890674863,10,11,14,9,144
46.03150491758455,10,11,14,10,148
49.72604462069507,10,11,14,12,152
60.07312285880613,10,11,14,13,156
107.15756861883541,10,11,14,14,160
63.610534825872485,10,11,14,15,164
59.76818694930571,10,11,14,16,168
62.07021477384033,10,11,15,1,176
60.268779105501395,10,11,15,2,180
58.52932416623709,10,11,15,3,184
57.309961537414196,10,11,15,4,188
56.96843276864252,10,11,15,5,192
55.1640759069859,10,11,15,6,196
54.093870608650846,10,11,15,7,200
52.500276838249114,10,11,15,8,204
50.458487541782794,10,11,15,9,208
46.563009188127886,10,11,15,10,212
48.872436428715766,10,11,15,12,216
56.83692117691126,10,11,15,13,220
63.63746766960996,10,11,15,14,224
110.46231198176581,10,11,15,15,228
66.16388073960623,10,11,15,16,232
68.09822813859985,10,11,16,1,240
63.90968757467721,10,11,16,2,244
61.20625640522525,10,11,16,3,248
59.41660251138986,10,11,16,4,252
58.767284375191046,10,11,16,5,0
56.61959913948197,10,11,16,6,4
55.37426508992375,10,11,16,7,8
53.42510114972842,10,11,16,8,12
51.121973557373074,10,11,16,9,16
46.934620110778035,10,11,16,10,20
48.36268069303471,10,11,16,12,24
55.440319115402154,10,11,16,13,28
59.72151708278846,10,11,16,14,32
66.17788954291797,10,11,16,15,36
112.19473688936115,10,11,16,16,40
46.83130048057118,10,12,13,1,48
47.16335120018117,10,12,13,2,52
46.18493203182511,10,12,13,3,56
45.935882526840565,10,12,13,4,60
45.668404433506204,10,12,13,5,64
45.40549082531598,10,12,13,6,68
45.828957191359386,10,12,13,7,72
44.74339843509969,10,12,13,8,76
44.22771453204247,10,12,13,9,80
43.7785481007309,10,12,13,10,84
40.94809711655768,10,12,13,11,88
92.30360671200529,10,12,13,13,92
50.58824293548443,10,12,13,14,96
48.231767238828795,10,12,13,15,100
47.414919233311224,10,12,13,16,104
53.48493311373917,10,12,14,1,112
53.19354193235873,10,12,14,2,116
51.8696959673847,10,12,14,3,120
51.33682685056923,10,12,14,4,124
50.84704573936836,10,12,14,5,128
50.2918692655415,10,12,14,6,132
50.40033825923847,10,12,14,7,136
49.02329401460585,10,12,14,8,140
48.14953296495349,10,12,14,9,144
47.14369616647702,10,12,14,10,148
43.47652348913737,10,12,14,11,152
51.05877019728287,10,12,14,13,156
101.37624294573547,10,12,14,14,160
58.185486102770724,10,12,14,15,164
54.81880787306673,10,12,14,16,168
58.35009504705591,10,12,15,1,176
57.21968874456988,10,12,15,2,180
55.37890167827918,10,12,15,3,184
54.464836442898175,10,12,15,4,188
53.72302117742565,10,12,15,5,192
52.84876468836021,10,12,15,6,196
52.662342956262094,10,12,15,7,200
51.063832704207506,10,12,15,8,204
49.88489217343323,10,12,15,9,208
48.51754420732121,10,12,15,10,212
44.33500060301083,10,12,15,11,216
48.64999643695299,10,12,15,13,220
58.121233566417686,10,12,15,14,224
105.8596111764136,10,12,15,15,228
62.13546064298265,10,12,15,16,232
64.90897340705028,10,12,16,1,240
61.25436391631415,10,12,16,2,244
58.538540766161795,10,12,16,3,248
57.09142881542933,10,12,16,4,252
56.05664522044502,10,12,16,5,0
54.87735206856269,10,12,16,6,4
54.41332791096105,10,12,16,7,8
52.46682719959589,10,12,16,8,12
51.06145881402127,10,12,16,9,16
49.40532049362346,10,12,16,10,20
44.82126473844053,10,12,16,11,24
47.73910550729257,10,12,16,13,28
54.77510885805201,10,12,16,14,32
62.152630486638785,10,12,16,15,36
108.67114562449227,10,12,16,16,40
48.21591030880238,10,13,14,1,48
48.07931790958016,10,13,14,2,52
47.20661942577439,10,13,14,3,56
46.902359352713844,10,13,14,4,60
47.27244747014099,10,13,14,5,64
46.38639989846298,10,13,14,6,68
46.50529551502221,10,13,14,7,72
45.81761866076002,10,13,14,8,76
45.513375169608736,10,13,14,9,80
45.56703836978076,10,13,14,10,84
44.693317780557315,10,13,14,11,88
41.77014143511041,10,13,14,12,92
91.84668205955086,10,13,14,14,96
51.51929119919487,10,13,14,15,100
49.032243170829844,10,13,14,16,104
55.46624071118864,10,13,15,1,112
54.508260122935404,10,13,15,2,116
53.145287644326324,10,13,15,3,120
52.45896021619852,10,13,15,4,124
52.54849187638918,10,13,15,5,128
51.357543390674486,10,13,15,6,132
51.317167574724934,10,13,15,7,136
50.27161788479579,10,13,15,8,140
49.62269732743231,10,13,15,9,144
49.32096490227183,10,13,15,10,148
47.95407727436117,10,13,15,11,152
44.273430507551154,10,13,15,12,156
51.48027554793273,10,13,15,14,160
101.59194461030027,10,13,15,15,164
58.720914007194686,10,13,15,16,168
62.90973774399386,10,13,16,1,176
59.46343605115581,10,13,16,2,180
57.18482173815799,10,13,16,3,184
55.97039312305449,10,13,16,4,188
55.71393974870812,10,13,16,5,192
54.21792115056589,10,13,16,6,196
53.8891143522414,10,13,16,7,200
52.562656356976746,10,13,16,8,204
51.70035181182069,10,13,16,9,208
51.0904210808629,10,13,16,10,212
49.34183869917367,10,13,16,11,216
45.168470055821096,10,13,16,12,220
48.971549625722176,10,13,16,14,224
58.70969360120447,10,13,16,15,228
106.13031798535435,10,13,16,16,232
48.12916108842837,10,14,15,1,240
47.2166697638655,10,14,15,2,244
47.366004333675114,10,14,15,3,248
46.360218169223415,10,14,15,4,252
46.093520969123105,10,14,15,5,0
46.481580054475074,10,14,15,6,4
45.57709393890568,10,14,15,7,8
45.882057689709995,10,14,15,8,12
45.24764371492786,10,14,15,9,16
44.614569118674574,10,14,15,10,20
44.096130702672546,10,14,15,11,24
43.26300808605423,10,14,15,12,28
40.89858762085263,10,14,15,13,32
91.37944045997939,10,14,15,15,36
50.523850541985325,10,14,15,16,40
58.03940714327421,10,14,16,1,48
54.636675157092526,10,14,16,2,52
53.96147015682715,10,14,16,3,56
52.332994970081245,10,14,16,4,60
51.764636913055575,10,14,16,5,64
51.79063549001505,10,14,16,6,68
50.639361984103694,10,14,16,7,72
50.744960208044816,10,14,16,8,76
49.88415882499905,10,14,16,9,80
48.83803689085854,10,14,16,10,84
47.964335875920305,10,14,16,11,88
46.61414756431972,10,14,16,12,92
43.383687705965926,10,14,16,13,96
50.53251764846584,10,14,16,15,100
100.9326993526554,10,14,16,16,104
50.84750559570145,10,15,16,1,112
48.355024235095115,10,15,16,2,116
47.447600696336785,10,15,16,3,120
46.928611412751216,10,15,16,4,124
46.62437573421717,10,15,16,5,128
46.2804500827757,10,15,16,6,132
46.012944186088234,10,15,16,7,136
45.8968570334761,10,15,16,8,140
46.06895871212984,10,15,16,9,144
45.18182399203604,10,15,16,10,148
44.83871623731527,10,15,16,11,152
44.269967535291535,10,15,16,12,156
43.43668773767545,10,15,16,13,160
40.95018552189318,10,15,16,14,164
91.530790538297,10,15,16,16,168
92.72394072371472,10,1,2,2,172
51.27034099303328,10,1,2,3,176
48.73250460043365,10,1,2,4,180
47.87126314529174,10,1,2,5,184
47.35643097358524,10,1,2,6,188
46.97306971251794,10,1,2,7,192
46.70550255818244,10,1,2,8,196
46.40437298273335,10,1,2,9,200
46.08673749088804,10,1,2,10,204
45.874463756786305,10,1,2,11,208
45.571132556287616,10,1,2,12,212
45.22370236040414,10,1,2,13,216
44.69753450713982,10,1,2,14,220
43.81197893995852,10,1,2,15,224
41.286417964159845,10,1,2,16,228
51.281559152417664,10,1,3,2,236
102.8258984177399,10,1,3,3,240
58.427830247509824,10,1,3,4,244
55.293373967993965,10,1,3,5,248
53.80946176278586,10,1,3,6,252
52.856197827960365,10,1,3,7,0
52.15539248028407,10,1,3,8,4
51.59606938499781,10,1,3,9,8
51.0267957767947,10,1,3,10,12
50.541039293723315,10,1,3,11,16
49.980991432389395,10,1,3,12,20
49.36186016148352,10,1,3,13,24
48.44842331446534,10,1,3,14,28
47.0847064783006,10,1,3,15,32
43.67987052483123,10,1,3,16,36
48.75707609571481,10,1,4,2,44
58.4130370963875,10,1,4,3,48
109.33784296729105,10,1,4,4,52
63.26372846262522,10,1,4,5,56
58.90423168465339,10,1,4,6,60
56.97933621939018,10,1,4,7,64
55.76144968432288,10,1,4,8,68
54.81014979452589,10,1,4,9,72
53.97548238981913,10,1,4,10,76
53.15411178612926,10,1,4,11,80
52.319462234163545,10,1,4,12,84
51.441772566377274,10,1,4,13,88
50.26518664483479,10,1,4,14,92
48.48089641870247,10,1,4,15,96
44.58333060082497,10,1,4,16,100
47.94302506625933,10,1,5,2,108
55.3167757579982,10,1,5,3,112
63.216482788221505,10,1,5,4,116
108.35126449210743,10,1,5,5,120
64.9611731087162,10,1,5,6,124
60.68588415965042,10,1,5,7,128
58.68528719615006,10,1,5,8,132
57.255473054917346,10,1,5,9,136
56.02246268431833,10,1,5,10,140
54.97947429216653,10,1,5,11,144
53.92940414487313,10,1,5,12,148
52.79017104589515,10,1,5,13,152
51.34961355731629,10,1,5,14,156
49.346255128251364,10,1,5,15,160
45.054789438212,10,1,5,16,164
47.393516116014965,10,1,6,2,172
53.824143033405676,10,1,6,3,176
58.88730242860074,10,1,6,4,180
64.94117434176049,10,1,6,5,184
113.01317472186128,10,1,6,6,188
66.74371977332844,10,1,6,7,192
62.289910693795015,10,1,6,8,196
60.02332202850405,10,1,6,9,200
58.22084213959637,10,1,6,10,204
56.78936861151134,10,1,6,11,208
55.437520179790255,10,1,6,12,212
54.04597408254759,10,1,6,13,216
52.282411976403694,10,1,6,14,220
50.014037286886904,10,1,6,15,224
45.43257738861516,10,1,6,16,228
47.00118201637284,10,1,7,2,236
52.859106965309515,10,1,7,3,240
56.97172743322617,10,1,7,4,244
60.70634312188315,10,1,7,5,248
66.795349216925,10,1,7,6,252
114.92818165057949,10,1,7,7,0
68.02816117977022,10,1,7,8,4
63.30842062098084,10,1,7,9,8
60.6039332693803,10,1,7,10,12
58.59001335904552,10,1,7,11,16
56.89216427894613,10,1,7,12,20
55.14340085527155,10,1,7,13,24
53.180689471287586,10,1,7,14,28
50.59603879130148,10,1,7,15,32
45.732675394884595,10,1,7,16,36
46.676248762269466,10,1,8,2,44
52.17332802698366,10,1,8,3,48
55.69917958878037,10,1,8,4,52
58.58897960921121,10,1,8,5,56
62.25705411991663,10,1,8,6,60
68.02816117977022,10,1,8,7,64
115.4714318835849,10,1,8,8,68
68.94303479803261,10,1,8,9,72
63.53370043210458,10,1,8,10,76
60.6487356519654,10,1,8,11,80
58.37683971552638,10,1,8,12,84
56.2823978144964,10,1,8,13,88
53.96715690084002,10,1,8,14,92
51.165982220571266,10,1,8,15,96
46.01047338018741,10,1,8,16,100
46.43496906198595,10,1,9,2,108
51.63217986782771,10,1,9,3,112
54.773901512983635,10,1,9,4,116
57.2220247546683,10,1,9,5,120
60.02226340070877,10,1,9,6,124
63.29613388540693,10,1,9,7,128
68.92965451101995,10,1,9,8,132
113.23320334023641,10,1,9,9,136
68.39955527861466,10,1,9,10,140
63.20231270550937,10,1,9,11,144
60.02226340070877,10,1,9,12,148
57.40073372706028,10,1,9,13,152
54.773901512983635,10,1,9,14,156
51.63217986782771,10,1,9,15,160
46.25228097625028,10,1,9,16,164
46.16242648345383,10,1,10,2,172
51.06895650260196,10,1,10,3,176
53.90270261735502,10,1,10,4,180
56.01004177159066,10,1,10,5,184
58.235722141143675,10,1,10,6,188
60.55522314091389,10,1,10,7,192
63.52435882893923,10,1,10,8,196
68.36292057590362,10,1,10,9,200
113.79815058470848,10,1,10,10,204
68.27465964047178,10,1,10,11,208
62.41524230054317,10,1,10,12,212
58.925019252618945,10,1,10,13,216
55.74496827799447,10,1,10,14,220
52.24943234945268,10,1,10,15,224
46.52115854971908,10,1,10,16,228
45.874144578110595,10,1,11,2,236
50.553041729579434,10,1,11,3,240
53.16050999184813,10,1,11,4,244
54.970109427691675,10,1,11,5,248
56.79939050049809,10,1,11,6,252
58.63815294117528,10,1,11,7,0
60.69275438651435,10,1,11,8,4
63.21160631589749,10,1,11,9,8
68.28884460023798,10,1,11,10,12
114.28207760926789,10,1,11,11,16
66.83087833458238,10,1,11,12,20
60.944714911675334,10,1,11,13,24
56.87895986372603,10,1,11,14,28
52.898858922542416,10,1,11,15,32
46.831974764658604,10,1,11,16,36
45.6002136213529,10,1,12,2,44
50.00992020338962,10,1,12,3,48
52.327769971896245,10,1,12,4,52
53.89129211498858,10,1,12,5,56
55.43295630178048,10,1,12,6,60
56.87276105613034,10,1,12,7,64
58.356930140233565,10,1,12,8,68
60.01343990350864,10,1,12,9,72
62.45601262728631,10,1,12,10,76
66.81122970662342,10,1,12,11,80
111.52209942954256,10,1,12,12,84
65.19971231236627,10,1,12,13,88
58.60878164986963,10,1,12,14,92
53.76226090497426,10,1,12,15,96
47.17384354722499,10,1,12,16,100
45.20956116475129,10,1,13,2,108
49.35582986510985,10,1,13,3,112
51.40931631684321,10,1,13,4,116
52.760683004285035,10,1,13,5,120
53.993845609357756,10,1,13,6,124
55.119083912828394,10,1,13,7,128
56.25857121555191,10,1,13,8,132
57.43411891962926,10,1,13,9,136
58.96166892472454,10,1,13,10,140
60.922856308196906,10,1,13,11,144
65.19434495847874,10,1,13,12,148
109.91758853776976,10,1,13,13,152
62.39505775286728,10,1,13,14,156
55.106820434575724,10,1,13,15,160
47.68648942871195,10,1,13,16,164
44.704776620390376,10,1,14,2,172
48.46579425141643,10,1,14,3,176
50.21397192295761,10,1,14,4,180
51.29662918092443,10,1,14,5,184
52.306547287206776,10,1,14,6,188
53.17727079522949,10,1,14,7,192
53.958669821826,10,1,14,8,196
54.79565394531924,10,1,14,9,200
55.74932542954807,10,1,14,10,204
56.889445399283034,10,1,14,11,208
58.619958680637374,10,1,14,12,212
62.368654191893384,10,1,14,13,216
106.03483765510549,10,1,14,14,220
58.491296630165074,10,1,14,15,224
48.56831336001376,10,1,14,16,228
43.851104601456996,10,1,15,2,236
47.09429086558126,10,1,15,3,240
48.48181834429955,10,1,15,4,244
49.27528479010531,10,1,15,5,248
50.01654595636432,10,1,15,6,252
50.585763901779266,10,1,15,7,0
51.155887874213,10,1,15,8,4
51.632416268290825,10,1,15,9,8
52.24042902531734,10,1,15,10,12
52.84936635621885,10,1,15,11,16
53.76374625687474,10,1,15,12,20
55.1131437831738,10,1,15,13,24
58.47591986679183,10,1,15,14,28
101.2903415345224,10,1,15,15,32
50.99593592740384,10,1,15,16,36
41.31989800725393,10,1,16,2,44
43.727183380412605,10,1,16,3,48
44.55663173649875,10,1,16,4,52
45.08852778601075,10,1,16,5,56
45.42925749280994,10,1,16,6,60
45.7864219285483,10,1,16,7,64
46.050915556830354,10,1,16,8,68
46.302722028133196,10,1,16,9,72
46.526816342318575,10,1,16,10,76
46.817432010882456,10,1,16,11,80
47.21805677499916,10,1,16,12,84
47.69097194215741,10,1,16,13,88
48.55032574684749,10,1,16,14,92
50.9959110898366,10,1,16,15,96
90.98288721955203,10,1,16,16,100
40.08879568583495,10,2,3,1,108
92.04836380652887,10,2,3,3,112
49.79680810507674,10,2,3,4,116
47.50748391646362,10,2,3,5,120
46.541980232834966,10,2,3,6,124
46.64881872112406,10,2,3,7,128
45.59050265625477,10,2,3,8,132
45.28550997246716,10,2,3,9,136
45.126861147884306,10,2,3,10,140
44.756473822580155,10,2,3,11,144
45.16398898141906,10,2,3,12,148
44.27750641467006,10,2,3,13,152
43.84392836118692,10,2,3,14,156
43.31768932662127,10,2,3,15,160
42.5213393093856,10,2,3,16,164
42.595491438896644,10,2,4,1,172
49.75684638139495,10,2,4,3,176
103.22475885711792,10,2,4,4,180
58.113581557024084,10,2,4,5,184
54.14418706498353,10,2,4,6,188
53.279312958460444,10,2,4,7,192
51.651133861381126,10,2,4,8,196
51.00220264024283,10,2,4,9,200
50.921533433667655,10,2,4,10,204
49.95608967662235,10,2,4,11,208
50.06181600432599,10,2,4,12,212
49.31029397426529,10,2,4,13,216
48.1279053853941,10,2,4,14,220
47.29459471032976,10,2,4,15,224
45.891094562434795,10,2,4,16,228
43.419321084247656,10,2,5,1,236
47.45579877069291,10,2,5,3,240
57.98663391165124,10,2,5,4,244
104.41057865681762,10,2,5,5,248
61.319865460819436,10,2,5,6,252
57.862678904231494,10,2,5,7,0
55.41710485746213,10,2,5,8,4
54.274684348723326,10,2,5,9,8
53.79736015566015,10,2,5,10,12
52.57856910396996,10,2,5,11,16
52.46326496286281,10,2,5,12,20
51.443677260788334,10,2,5,13,24
50.08996504174672,10,2,5,14,28
48.951193928192964,10,2,5,15,32
47.25624970701982,10,2,5,16,36
43.955047728776094,10,2,6,1,44
46.52805874397482,10,2,6,3,48
54.120317774192095,10,2,6,4,52
61.02312924224637,10,2,6,5,56
110.24542418793891,10,2,6,6,60
64.42877120616058,10,2,6,7,64
59.578793601613874,10,2,6,8,68
57.57867127413594,10,2,6,9,72
56.47818689716064,10,2,6,10,76
54.92822387025166,10,2,6,11,80
54.5045689210164,10,2,6,12,84
53.16562644909874,10,2,6,13,88
51.60251000447558,10,2,6,14,92
50.20134961743633,10,2,6,15,96
48.15761498749167,10,2,6,16,100
44.352752082605114,10,2,7,1,108
45.97026057540145,10,2,7,3,112
52.609098383685236,10,2,7,4,116
57.19602875474187,10,2,7,5,120
64.2191512710864,10,2,7,6,124
113.05301240146636,10,2,7,7,128
65.75780637367734,10,2,7,8,132
61.26406551177107,10,2,7,9,136
59.301360605268314,10,2,7,10,140
57.26183322896843,10,2,7,11,144
56.342013043123636,10,2,7,12,148
54.768618291721815,10,2,7,13,152
52.83523826349596,10,2,7,14,156
51.17760572608615,10,2,7,15,160
48.85926558735035,10,2,7,16,164
44.674481602469555,10,2,8,1,172
45.57565703016725,10,2,8,3,176
51.702169478492245,10,2,8,4,180
55.449078711668186,10,2,8,5,184
59.98375687536212,10,2,8,6,188
66.43743036640525,10,2,8,7,192
113.99536072023868,10,2,8,8,196
67.2124517014856,10,2,8,9,200
62.5803283685672,10,2,8,10,204
59.624983647665445,10,2,8,11,208
58.153755281523694,10,2,8,12,212
56.16485534001698,10,2,8,13,216
53.97849600607259,10,2,8,14,220
52.0036905183044,10,2,8,15,224
49.475315032834985,10,2,8,16,228
44.91675347704045,10,2,9,1,236
45.26418304266068,10,2,9,3,240
51.001991916413395,10,2,9,4,244
54.3152152437358,10,2,9,5,248
57.96975543348378,10,2,9,6,252
61.974419608179275,10,2,9,7,0
67.19387774489395,10,2,9,8,4
112.08406405819103,10,2,9,9,8
67.76674138454725,10,2,9,10,12
62.54525149298942,10,2,9,11,16
60.10170799708882,10,2,9,12,20
57.62511450233406,10,2,9,13,24
55.057392453845566,10,2,9,14,28
52.78766143877915,10,2,9,15,32
49.938717071948155,10,2,9,16,36
45.19051733828612,10,2,10,1,44
45.00578634029555,10,2,10,3,48
50.43869908473454,10,2,10,4,52
53.31493493261909,10,2,10,5,56
56.36393093514914,10,2,10,6,60
59.4997979014854,10,2,10,7,64
62.09122457301957,10,2,10,8,68
67.2480091113978,10,2,10,9,72
113.6043245347749,10,2,10,10,76
68.06876489109031,10,2,10,11,80
62.751596825571774,10,2,10,12,84
59.43387348108961,10,2,10,13,88
56.284047344536674,10,2,10,14,92
53.65963540736907,10,2,10,15,96
50.518303184908106,10,2,10,16,100
45.44901145599626,10,2,11,1,108
44.760562251182954,10,2,11,3,112
49.91359784924261,10,2,11,4,116
52.54058613376657,10,2,11,5,120
55.17835215618825,10,2,11,6,124
57.84225641069923,10,2,11,7,128
59.48336276828914,10,2,11,8,132
62.30864555397286,10,2,11,9,136
68.26406557433332,10,2,11,10,140
114.5479163570704,10,2,11,11,144
67.43627046939268,10,2,11,12,148
61.754421531485995,10,2,11,13,152
57.644609321003344,10,2,11,14,156
54.555477314346476,10,2,11,15,160
51.055900089081305,10,2,11,16,164
45.75741037585905,10,2,12,1,172
44.48317437618055,10,2,12,3,176
49.386138494685,10,2,12,4,180
51.784836078337634,10,2,12,5,184
54.07981583662201,10,2,12,6,188
56.35879208726442,10,2,12,7,192
57.461056057940134,10,2,12,8,196
59.422880713387734,10,2,12,9,200
62.61613116719932,10,2,12,10,204
67.18952654191492,10,2,12,11,208
112.43521772311054,10,2,12,12,212
66.32640769154962,10,2,12,13,216
59.68404501450698,10,2,12,14,220
55.710515995946274,10,2,12,15,224
51.73438208834082,10,2,12,16,228
46.09898254199844,10,2,13,1,236
44.217376963446675,10,2,13,3,240
48.85524340750029,10,2,13,4,244
50.998693280732375,10,2,13,5,248
52.94009131741784,10,2,13,6,252
54.98674575063035,10,2,13,7,0
55.719912443772294,10,2,13,8,4
57.15147268751409,10,2,13,9,8
59.509685279853436,10,2,13,10,12
61.55095513674858,10,2,13,11,16
66.41904675377398,10,2,13,12,20
111.53334987072272,10,2,13,13,24
63.83161968983249,10,2,13,14,28
57.4573393182948,10,2,13,15,32
52.56680634808557,10,2,13,16,36
46.658895932454676,10,2,14,1,44
43.82180075982654,10,2,14,3,48
48.15280257056577,10,2,14,4,52
50.07462679116185,10,2,14,5,56
51.839887459463654,10,2,14,6,60
53.53110950448404,10,2,14,7,64
53.960090408674695,10,2,14,8,68
55.00333233766539,10,2,14,9,72
56.73847989302553,10,2,14,10,76
57.70538358129131,10,2,14,11,80
60.340883563199995,10,2,14,12,84
64.38248290186247,10,2,14,13,88
108.57495585477602,10,2,14,14,92
61.362760189068496,10,2,14,15,96
53.94357363721365,10,2,14,16,100
47.55684105539979,10,2,15,1,108
43.33500687969519,10,2,15,3,112
47.30432318727128,10,2,15,4,116
48.92178952917593,10,2,15,5,120
50.39412173294071,10,2,15,6,124
51.82445059901158,10,2,15,7,128
51.980398103559494,10,2,15,8,132
52.76284290627327,10,2,15,9,136
54.0197636557715,10,2,15,10,140
54.550072390422265,10,2,15,11,144
56.3412162557544,10,2,15,12,148
57.90065351834084,10,2,15,13,152
61.54386054685839,10,2,15,14,156
105.02344142119703,10,2,15,15,160
57.2430868331494,10,2,15,16,164
50.06214810219901,10,2,16,1,172
42.47718529842111,10,2,16,3,176
45.91571826745631,10,2,16,4,180
47.189452865847834,10,2,16,5,184
48.25236873541837,10,2,16,6,188
49.519109763077665,10,2,16,7,192
49.42654925796197,10,2,16,8,196
49.90401771886303,10,2,16,9,200
50.803131355766816,10,2,16,10,204
51.0391814156186,10,2,16,11,208
52.34844132613372,10,2,16,12,212
52.89473168165935,10,2,16,13,216
53.90143074616771,10,2,16,14,220
57.26052383608248,10,2,16,15,224
99.76695349041437,10,2,16,16,228
43.012778305638975,10,3,4,1,236
40.45396829620391,10,3,4,2,240
93.86841492231784,10,3,4,4,244
50.968827785629074,10,3,4,5,248
48.77451275472867,10,3,4,6,252
47.09436508042693,10,3,4,7,0
47.1985452354891,10,3,4,8,4
46.27454121966861,10,3,4,9,8
45.87392458126739,10,3,4,10,12
45.56979443709027,10,3,4,11,16
45.322510388854006,10,3,4,12,20
45.09382036353528,10,3,4,13,24
45.466809547077446,10,3,4,14,28
44.392895782931056,10,3,4,15,32
43.86458793689358,10,3,4,16,36
46.1796338930949,10,3,5,1,44
42.75137774829653,10,3,5,2,48
50.95639633905968,10,3,5,4,52
99.13811025835437,10,3,5,5,56
57.90007753973679,10,3,5,6,60
53.95622150165558,10,3,5,7,64
53.255598147976315,10,3,5,8,68
52.223070581470985,10,3,5,9,72
51.084549336530834,10,3,5,10,76
50.56853308181168,10,3,5,11,80
50.052550820570445,10,3,5,12,84
49.52318381661566,10,3,5,13,88
49.656266271229256,10,3,5,14,92
48.30590116260544,10,3,5,15,96
47.47222896049741,10,3,5,16,100
47.6791973874948,10,3,6,1,108
43.70911801738962,10,3,6,2,112
48.06532589811212,10,3,6,4,116
57.280412300401025,10,3,6,5,120
107.50380884956947,10,3,6,6,124
61.504593635710876,10,3,6,7,128
58.38239711395198,10,3,6,8,132
56.54244064251066,10,3,6,9,136
54.793077239926404,10,3,6,10,140
53.87922152633657,10,3,6,11,144
53.04482449828654,10,3,6,12,148
52.302243490297755,10,3,6,13,152
52.10522845880111,10,3,6,14,156
50.51441646630888,10,3,6,15,160
49.320975796535265,10,3,6,16,164
48.61396386444223,10,3,7,1,172
44.27715748928722,10,3,7,2,176
47.071051859035414,10,3,7,4,180
53.976118346847464,10,3,7,5,184
62.14674724081383,10,3,7,6,188
111.21207743898611,10,3,7,7,192
65.11454809025915,10,3,7,8,196
60.79824765613994,10,3,7,9,200
58.08713129869817,10,3,7,10,204
56.69582164154732,10,3,7,11,208
55.43447731154036,10,3,7,12,212
54.37358598592055,10,3,7,13,216
53.91033772741715,10,3,7,14,220
52.07180313386781,10,3,7,15,224
50.60778588469161,10,3,7,16,228
49.323386219174665,10,3,8,1,236
44.64361646873907,10,3,8,2,240
46.56447162122801,10,3,8,4,244
52.59278696843663,10,3,8,5,248
58.33038630024779,10,3,8,6,252
64.42651747414689,10,3,8,7,0
113.18357180667859,10,3,8,8,4
67.18678217866973,10,3,8,9,8
61.722919102632495,10,3,8,10,12
59.41699806563706,10,3,8,11,16
57.617550361752755,10,3,8,12,20
56.18732544056023,10,3,8,13,24
55.41913083304293,10,3,8,14,28
53.295060614338944,10,3,8,15,32
51.548481621296844,10,3,8,16,36
49.84289868722969,10,3,9,1,44
44.94536604704576,10,3,9,2,48
46.16315310269574,10,3,9,4,52
51.75131400310317,10,3,9,5,56
56.60411345105229,10,3,9,6,60
60.261434255560495,10,3,9,7,64
67.2266433128303,10,3,9,8,68
111.94253840704884,10,3,9,9,72
67.16574164266626,10,3,9,10,76
62.483702131913226,10,3,9,11,80
59.836216761915985,10,3,9,12,84
57.91111620204739,10,3,9,13,88
56.75860831957443,10,3,9,14,92
54.46729705345655,10,3,9,15,96
52.36072700549779,10,3,9,16,100
50.41219451429168,10,3,10,1,108
45.20267074896875,10,3,10,2,112
45.82476956573147,10,3,10,4,116
51.05904611390084,10,3,10,5,120
55.405741329440545,10,3,10,6,124
58.09942921336429,10,3,10,7,128
62.34941402673728,10,3,10,8,132
67.70814267885046,10,3,10,9,136
113.42296874502111,10,3,10,10,140
68.10203270653847,10,3,10,11,144
62.764919562916084,10,3,10,12,148
59.98141036694008,10,3,10,13,152
58.28215053351352,10,3,10,14,156
55.475326988368835,10,3,10,15,160
53.15613315619339,10,3,10,16,164
50.89758197437334,10,3,11,1,172
45.4773269050397,10,3,11,2,176
45.57019715802218,10,3,11,4,180
50.553041729579434,10,3,11,5,184
54.48869897127047,10,3,11,6,188
56.663170302939704,10,3,11,7,192
60.00327550214074,10,3,11,8,196
63.01214240551635,10,3,11,9,200
68.06361150007379,10,3,11,10,204
114.64190116682913,10,3,11,11,208
67.66598477974537,10,3,11,12,212
62.48232733912391,10,3,11,13,216
59.905559355170624,10,3,11,14,220
56.62072816829837,10,3,11,15,224
53.945952139489215,10,3,11,16,228
51.46325482191482,10,3,12,1,236
45.736493263297035,10,3,12,2,240
45.29925116679093,10,3,12,4,244
50.016390812386966,10,3,12,5,248
53.67109825964128,10,3,12,6,252
55.43654243151209,10,3,12,7,0
58.28489277529622,10,3,12,8,4
60.419613780140715,10,3,12,9,8
62.81781190450557,10,3,12,10,12
67.74871274988531,10,3,12,11,16
113.51087616409241,10,3,12,12,20
67.31129977228757,10,3,12,13,24
62.24347926190704,10,3,12,14,28
58.2319548428475,10,3,12,15,32
54.90546110247969,10,3,12,16,36
52.11014400918862,10,3,13,1,44
46.00073228103192,10,3,13,2,48
45.03340692402244,10,3,13,4,52
49.53443163642343,10,3,13,5,56
52.918170826465385,10,3,13,6,60
54.34534983153476,10,3,13,7,64
56.853743951517174,10,3,13,8,68
58.443899688294636,10,3,13,9,72
59.98141036694008,10,3,13,10,76
62.51295039136836,10,3,13,11,80
67.2596546349312,10,3,13,12,84
112.87986248642268,10,3,13,13,88
66.62122045770516,10,3,13,14,92
60.29550665022172,10,3,13,15,96
56.04519591175816,10,3,13,16,100
52.99031247101648,10,3,14,1,108
46.38848004134918,10,3,14,2,112
44.77322486189411,10,3,14,4,116
48.97176684167339,10,3,14,5,120
52.07414557982898,10,3,14,6,124
53.25188498241167,10,3,14,7,128
55.412939105024165,10,3,14,8,132
56.69688358150447,10,3,14,9,136
57.61111350032402,10,3,14,10,140
59.30727351056461,10,3,14,11,144
61.53352484808661,10,3,14,12,148
65.98626445165965,10,3,14,13,152
111.2154314516463,10,3,14,14,156
64.71350537253107,10,3,14,15,160
57.8099925822327,10,3,14,16,164
54.37006970799181,10,3,15,1,172
46.845768659467154,10,3,15,2,176
44.369215226146096,10,3,15,4,180
48.33959171652161,10,3,15,5,184
51.11112648162189,10,3,15,6,188
52.061701514380985,10,3,15,7,192
53.986235077996255,10,3,15,8,196
54.93992336771687,10,3,15,9,200
55.50580742128331,10,3,15,10,204
56.68848875065172,10,3,15,11,208
58.036098501017854,10,3,15,12,212
60.12826974721526,10,3,15,13,216
64.94228484790746,10,3,15,14,220
109.11794016695659,10,3,15,15,224
61.600093518969494,10,3,15,16,228
57.75146376551917,10,3,16,1,236
47.70373879496119,10,3,16,2,240
43.87678949114309,10,3,16,4,244
47.50542902277712,10,3,16,5,248
49.9162218442337,10,3,16,6,252
50.60389856779101,10,3,16,7,0
52.21562896917726,10,3,16,8,4
52.96143618637597,10,3,16,9,8
53.2126114697645,10,3,16,10,12
53.99395619314697,10,3,16,11,16
54.906797925182495,10,3,16,12,20
56.08548582258406,10,3,16,13,24
58.45600644512389,10,3,16,14,28
62.00548655058851,10,3,16,15,32
105.52463869998033,10,3,16,16,36
44.812787940208814,10,4,5,1,44
43.84910743399882,10,4,5,2,48
41.63325420062676,10,4,5,3,52
89.77182987927027,10,4,5,5,56
50.841161882111805,10,4,5,6,60
48.398894343253296,10,4,5,7,64
47.672998934457176,10,4,5,8,68
47.199244850015326,10,4,5,9,72
46.80290088647329,10,4,5,10,76
46.589578153984256,10,4,5,11,80
46.23535222948691,10,4,5,12,84
46.05013882915876,10,4,5,13,88
45.85387820193845,10,4,5,14,92
45.45837159359234,10,4,5,15,96
45.13650275943875,10,4,5,16,100
49.13649713244676,10,4,6,1,108
47.681242889150845,10,4,6,2,112
44.51118284667344,10,4,6,3,116
50.8126140600078,10,4,6,5,120
103.22761057828104,10,4,6,6,124
58.784465366838475,10,4,6,7,128
55.66531719676313,10,4,6,8,132
54.31611099604694,10,4,6,9,136
53.35147704925386,10,4,6,10,140
52.705262706157875,10,4,6,11,144
52.082002214407346,10,4,6,12,148
51.6594045791383,10,4,6,13,152
51.18487866224809,10,4,6,14,156
50.61640117616036,10,4,6,15,160
49.90423845175664,10,4,6,16,164
51.06439299838266,10,4,7,1,172
49.14722699161882,10,4,7,2,176
45.50126235733816,10,4,7,3,180
48.486232888536286,10,4,7,5,184
58.869522572672544,10,4,7,6,188
108.99346515008571,10,4,7,7,192
63.315496544602276,10,4,7,8,196
59.57103037688106,10,4,7,9,200
57.61595080726854,10,4,7,10,204
56.47785823215395,10,4,7,11,208
55.46962802336957,10,4,7,12,212
54.692153699275835,10,4,7,13,216
53.96337803491526,10,4,7,14,220
53.079347493951666,10,4,7,15,224
52.10986188861738,10,4,7,16,228
52.3105145140451,10,4,8,1,236
50.113187756173126,10,4,8,2,240
46.0246685419605,10,4,8,3,244
47.662887347817694,10,4,8,5,248
55.617400527415725,10,4,8,6,252
63.23116746272059,10,4,8,7,0
111.92668964896387,10,4,8,8,4
66.35611359383955,10,4,8,9,8
61.81102122785127,10,4,8,10,12
59.75937231263619,10,4,8,11,16
58.18410497402996,10,4,8,12,20
57.05997794570063,10,4,8,13,24
56.01473326989809,10,4,8,14,28
54.87648016454146,10,4,8,15,32
53.60585547176183,10,4,8,16,36
53.219572224748,10,4,9,1,44
50.774387553463136,10,4,9,2,48
46.42260877093341,10,4,9,3,52
47.19033495495201,10,4,9,5,56
54.30290806030644,10,4,9,6,60
59.43700082346874,10,4,9,7,64
66.38586070734449,10,4,9,8,68
111.49405996019138,10,4,9,9,72
67.60799121779775,10,4,9,10,76
63.19532315862969,10,4,9,11,80
60.78682338567244,10,4,9,12,84
59.15070399173279,10,4,9,13,88
57.75787686086544,10,4,9,14,92
56.310713387878835,10,4,9,15,96
54.77984571243769,10,4,9,16,100
54.05298947137768,10,4,10,1,108
51.34056594227447,10,4,10,2,112
46.74165798774032,10,4,10,3,116
46.81785062526904,10,4,10,5,120
53.40512970299926,10,4,10,6,124
57.57240743899726,10,4,10,7,128
61.82301722977094,10,4,10,8,132
67.62667915361001,10,4,10,9,136
113.92144224476573,10,4,10,10,140
69.14625376137059,10,4,10,11,144
64.03321641474628,10,4,10,12,148
61.518582579926395,10,4,10,13,152
59.599057001452614,10,4,10,14,156
57.75854888900881,10,4,10,15,160
55.92277466064216,10,4,10,16,164
54.85939040693156,10,4,11,1,172
51.88472663295072,10,4,11,2,176
47.014246515215916,10,4,11,3,180
46.562048177859005,10,4,11,5,184
52.7694387011627,10,4,11,6,188
56.42162075319771,10,4,11,7,192
59.783626743883424,10,4,11,8,196
63.23138212565784,10,4,11,9,200
69.1258150105288,10,4,11,10,204
115.90566064565887,10,4,11,11,208
69.20493039804573,10,4,11,12,212
64.29165387291827,10,4,11,13,216
61.49612886944458,10,4,11,14,220
59.17471138384005,10,4,11,15,224
56.976745559514974,10,4,11,16,228
55.69372375152763,10,4,12,1,236
52.40699146130533,10,4,12,2,240
47.27218860457873,10,4,12,3,244
46.29416449607988,10,4,12,5,248
52.19588817848602,10,4,12,6,252
55.45014811998432,10,4,12,7,0
58.25865051513246,10,4,12,8,4
60.918688877779985,10,4,12,9,8
64.1014313961134,10,4,12,10,12
69.29221030688073,10,4,12,11,16
114.82744563789188,10,4,12,12,20
69.36683714149346,10,4,12,13,24
64.0479049616889,10,4,12,14,28
60.86114800278932,10,4,12,15,32
58.15029544384201,10,4,12,16,36
56.59352062149583,10,4,13,1,44
52.925827681570794,10,4,13,2,48
47.52839447068066,10,4,13,3,52
46.07445619380788,10,4,13,5,56
51.70865885677848,10,4,13,6,60
54.63376459158829,10,4,13,7,64
57.08683058771796,10,4,13,8,68
59.214142610545586,10,4,13,9,72
61.52146860794677,10,4,13,10,76
64.31712254927,10,4,13,11,80
69.33625295276278,10,4,13,12,84
115.01851669615267,10,4,13,13,88
68.68862943780498,10,4,13,14,92
63.147207447345515,10,4,13,15,96
59.597484137144264,10,4,13,16,100
57.778597765559155,10,4,14,1,108
53.62067327363881,10,4,14,2,112
47.82942826019132,10,4,14,3,116
45.81336323696289,10,4,14,5,120
51.186689506395254,10,4,14,6,124
53.84722599656251,10,4,14,7,128
55.99183141975941,10,4,14,8,132
57.728649144741816,10,4,14,9,136
59.51194943521972,10,4,14,10,140
61.43168718073018,10,4,14,11,144
63.920009875425755,10,4,14,12,148
68.67408642452887,10,4,14,13,152
113.55665691323313,10,4,14,14,156
67.70693905302755,10,4,14,15,160
61.681497326038034,10,4,14,16,164
59.5606819202857,10,4,15,1,172
54.48973260975807,10,4,15,2,176
48.21967405096997,10,4,15,3,180
45.54692907786818,10,4,15,5,184
50.61430298918196,10,4,15,6,188
53.00432458070686,10,4,15,7,192
54.94185912630834,10,4,15,8,196
56.36664625810521,10,4,15,9,200
57.7595672355401,10,4,15,10,204
59.16218369138085,10,4,15,11,208
60.80255306380136,10,4,15,12,212
63.13495186899413,10,4,15,13,216
67.74209429036651,10,4,15,14,220
112.26549268877702,10,4,15,15,224
65.87420803983517,10,4,15,16,228
63.4514229066723,10,4,16,1,236
55.86696129530133,10,4,16,2,240
48.72520973405006,10,4,16,3,244
45.234164909140475,10,4,16,5,248
49.95614201203934,10,4,16,6,252
52.12089101387172,10,4,16,7,0
53.71342546457815,10,4,16,8,4
54.88733987979519,10,4,16,9,8
55.9967713272214,10,4,16,10,12
57.05997794570063,10,4,16,11,16
58.18307931529908,10,4,16,12,20
59.62691344875939,10,4,16,13,24
61.77048426891799,10,4,16,14,28
65.86142595378514,10,4,16,15,32
109.79914974239126,10,4,16,16,36
41.991118590064985,10,5,6,1,44
41.38384351023771,10,5,6,2,48
40.459076468156994,10,5,6,3,52
37.63060285038097,10,5,6,4,56
90.02269901276001,10,5,6,6,60
47.95572664235927,10,5,6,7,64
45.614842760426285,10,5,6,8,68
44.74230434462883,10,5,6,9,72
44.4254907170595,10,5,6,10,76
44.359046386045705,10,5,6,11,80
43.43353366429759,10,5,6,12,84
43.55023617057586,10,5,6,13,88
42.95416174100646,10,5,6,14,92
42.65441864943055,10,5,6,15,96
42.31006798408491,10,5,6,16,100
46.28354785535054,10,5,7,1,108
45.224741231472194,10,5,7,2,112
43.7822676583689,10,5,7,3,116
39.94424124030315,10,5,7,4,120
48.04049010531341,10,5,7,6,124
100.83906585995891,10,5,7,7,128
55.60491197680862,10,5,7,8,132
52.33188945604759,10,5,7,9,136
51.1397245765379,10,5,7,10,140
50.46576679786154,10,5,7,11,144
49.15535351626487,10,5,7,12,148
48.98042719582918,10,5,7,13,152
48.0701296974518,10,5,7,14,156
47.54072443553773,10,5,7,15,160
46.87896788134479,10,5,7,16,164
48.355280436444666,10,5,8,1,172
46.99454685380077,10,5,8,2,176
45.16452268694769,10,5,8,3,180
40.739382157455594,10,5,8,4,184
45.57767297575348,10,5,8,6,188
55.571992795424,10,5,8,7,192
105.02658553399341,10,5,8,8,196
59.994898658282835,10,5,8,9,200
56.29013832939282,10,5,8,10,204
54.55188568528607,10,5,8,11,208
52.710573940230574,10,5,8,12,212
52.27788259044708,10,5,8,13,216
50.926321162222976,10,5,8,14,220
50.14271803220828,10,5,8,15,224
49.2547178932181,10,5,8,16,228
49.78521606229991,10,5,9,1,236
48.116040841846065,10,5,9,2,240
46.02496525368207,10,5,9,3,244
41.23272121161916,10,5,9,4,248
44.70089396900123,10,5,9,6,252
52.21185090853194,10,5,9,7,0
59.984727644871306,10,5,9,8,4
105.60467656868511,10,5,9,9,8
62.60320760931976,10,5,9,10,12
58.56676667683852,10,5,9,11,16
55.747785267871635,10,5,9,12,20
54.88294433897227,10,5,9,13,24
53.1387597006588,10,5,9,14,28
52.013084341803705,10,5,9,15,32
50.8742732217211,10,5,9,16,36
50.9711288803536,10,5,10,1,44
49.05038141394171,10,5,10,2,48
46.69261736885731,10,5,10,3,52
41.593658174451825,10,5,10,4,56
44.162847675916,10,5,10,6,60
50.71940621971392,10,5,10,7,64
55.77986274749125,10,5,10,8,68
62.059800465868015,10,5,10,9,72
109.28843667423264,10,5,10,10,76
64.82642531709034,10,5,10,11,80
59.35205352182033,10,5,10,12,84
57.56413171010398,10,5,10,13,88
55.33813805009076,10,5,10,14,92
53.81570012266361,10,5,10,15,96
52.37187644059123,10,5,10,16,100
52.002064526515404,10,5,11,1,108
49.855698585194084,10,5,11,2,112
47.23328953346806,10,5,11,3,116
41.85666041762972,10,5,11,4,120
43.78814112460044,10,5,11,6,124
49.80593808001184,10,5,11,7,128
53.96559781970614,10,5,11,8,132
57.92516361267063,10,5,11,9,136
64.68699359559542,10,5,11,10,140
111.86920974620719,10,5,11,11,144
64.78067883543515,10,5,11,12,148
60.58903171555432,10,5,11,13,152
57.50465486012978,10,5,11,14,156
55.486893984034225,10,5,11,15,160
53.69808223122881,10,5,11,16,164
53.09200152494958,10,5,12,1,172
50.59438002533239,10,5,12,2,176
47.72044174379024,10,5,12,3,180
42.07925487970837,10,5,12,4,184
43.47082384143462,10,5,12,6,188
49.11780178859624,10,5,12,7,192
52.744043551087564,10,5,12,8,196
55.83048554128126,10,5,12,9,200
59.885717683089176,10,5,12,10,204
65.47772644079153,10,5,12,11,208
111.08011043066524,10,5,12,12,212
66.00767091552974,10,5,12,13,216
60.28390945584258,10,5,12,14,220
57.48788403989308,10,5,12,15,224
55.14232901997573,10,5,12,16,228
54.23154451618359,10,5,13,1,236
51.38603098670728,10,5,13,2,240
48.24161349947393,10,5,13,3,244
42.346967802701315,10,5,13,4,248
43.2106699348416,10,5,13,6,252
48.550340442205794,10,5,13,7,0
51.78354961835915,10,5,13,8,4
54.39422717549002,10,5,13,9,8
57.494771093947755,10,5,13,10,12
60.69765914379751,10,5,13,11,16
65.39038161090978,10,5,13,12,20
111.91699943901756,10,5,13,13,24
65.21802186623555,10,5,13,14,28
59.9829838158427,10,5,13,15,32
56.80603783386824,10,5,13,16,36
55.673264795061854,10,5,14,1,44
52.29701677350635,10,5,14,2,48
48.80989989931724,10,5,14,3,52
42.553316235110515,10,5,14,4,56
42.90041329363451,10,5,14,6,60
47.97436623988671,10,5,14,7,64
50.942151573432234,10,5,14,8,68
53.116147842530005,10,5,14,9,72
55.755130019377674,10,5,14,10,76
58.109993275710394,10,5,14,11,80
60.24407759720353,10,5,14,12,84
65.74269865308946,10,5,14,13,88
110.30020300869668,10,5,14,14,92
64.77648929187316,10,5,14,15,96
59.10452753497908,10,5,14,16,100
57.66950278253534,10,5,15,1,108
53.472889125905624,10,5,15,2,112
49.45503250521384,10,5,15,3,116
42.85795452649684,10,5,15,4,120
42.63543732800166,10,5,15,6,124
47.457708359634346,10,5,15,7,128
50.120677033632354,10,5,15,8,132
52.04182981412372,10,5,15,9,136
54.26408519184553,10,5,15,10,140
56.14437013259499,10,5,15,11,144
57.40825708476346,10,5,15,12,148
60.507287123563145,10,5,15,13,152
64.73662882236768,10,5,15,14,156
109.59742531732641,10,5,15,15,160
63.55307332376261,10,5,15,16,164
61.931347386483765,10,5,16,1,172
55.1971527357191,10,5,16,2,176
50.28316231804536,10,5,16,3,180
43.209360802069526,10,5,16,4,184
42.321817450608116,10,5,16,6,188
46.87810776742172,10,5,16,7,192
49.279618999325514,10,5,16,8,196
50.89580613113165,10,5,16,9,200
52.865276908177925,10,5,16,10,204
54.35330181708279,10,5,16,11,208
55.11853412873359,10,5,16,12,212
57.35955816215513,10,5,16,13,216
59.09688356585653,10,5,16,14,220
63.54373405728575,10,5,16,15,224
107.78491043212627,10,5,16,16,228
44.88187978852772,10,6,7,1,236
44.4354374067637,10,6,7,2,240
44.463734752788824,10,6,7,3,244
42.929526668402794,10,6,7,4,248
40.55851117544061,10,6,7,5,252
93.63838027355688,10,6,7,7,0
51.201857932048554,10,6,7,8,4
48.145729477002284,10,6,7,9,8
47.195407551832794,10,6,7,10,12
46.7190389085017,10,6,7,11,16
46.243527801406685,10,6,7,12,20
45.97988646836863,10,6,7,13,24
46.336961668080356,10,6,7,14,28
45.45097744237434,10,6,7,15,32
45.146326477559235,10,6,7,16,36
49.381615867342276,10,6,8,1,44
48.82661090293673,10,6,8,2,48
48.28879816646216,10,6,8,3,52
46.179566973505544,10,6,8,4,56
43.03128926734872,10,6,8,5,60
51.10135293297332,10,6,8,7,64
103.12013378213217,10,6,8,8,68
58.53739808192977,10,6,8,9,72
54.59356597698167,10,6,8,10,76
53.24056936539224,10,6,8,11,80
52.28732916685064,10,6,8,12,84
51.590279188378105,10,6,8,13,88
51.65943669349443,10,6,8,14,92
50.46613372804787,10,6,8,15,96
49.89308625508229,10,6,8,16,100
51.651161885544866,10,6,9,1,108
50.844109703035556,10,6,9,2,112
50.001942733182915,10,6,9,3,116
47.49836369645614,10,6,9,4,120
43.91348988395551,10,6,9,5,124
48.58612309013863,10,6,9,7,128
58.93351462038909,10,6,9,8,132
105.32622579512741,10,6,9,9,136
61.75154890301571,10,6,9,10,140
58.0462608812084,10,6,9,11,144
56.27302986154643,10,6,9,12,148
55.00229665712568,10,6,9,13,152
54.74826272716801,10,6,9,14,156
53.21476926867485,10,6,9,15,160
52.42043081429502,10,6,9,16,164
53.411828541525836,10,6,10,1,172
52.47010747385714,10,6,10,2,176
51.24059255340503,10,6,10,3,180
48.434759751344075,10,6,10,4,184
44.4610098612974,10,6,10,5,188
47.678801164218825,10,6,10,7,192
55.251425275275864,10,6,10,8,196
62.07242293293761,10,6,10,9,200
109.5006153110268,10,6,10,10,204
64.83700907957355,10,6,10,11,208
60.77200593808148,10,6,10,12,212
58.294040438484444,10,6,10,13,216
57.4496893762531,10,6,10,14,220
55.540768554748766,10,6,10,15,224
54.455214145349615,10,6,10,16,228
54.81799769481462,10,6,11,1,236
53.68039828440591,10,6,11,2,240
52.13539816418034,10,6,11,3,244
49.07102738065647,10,6,11,4,248
44.82007778278813,10,6,11,5,252
47.14356661461936,10,6,11,7,0
53.79058654649292,10,6,11,8,4
58.196014128165295,10,6,11,9,8
64.80604488686373,10,6,11,10,12
112.63446398541092,10,6,11,11,16
66.6524056873721,10,6,11,12,20
61.71938206000744,10,6,11,13,24
60.03851457242197,10,6,11,14,28
57.61654658098109,10,6,11,15,32
56.16993720477297,10,6,11,16,36
56.18718212920576,10,6,12,1,44
54.741275717433446,10,6,12,2,48
52.967405117783464,10,6,12,3,52
49.62752666296301,10,6,12,4,56
45.12531137378817,10,6,12,5,60
46.70361583975317,10,6,12,7,64
52.877883520404936,10,6,12,8,68
56.41256697943868,10,6,12,9,72
60.37317103560474,10,6,12,10,76
66.19831959505402,10,6,12,11,80
112.79963486986863,10,6,12,12,84
67.3378029111168,10,6,12,13,88
63.16526370291035,10,6,12,14,92
59.88280887645361,10,6,12,15,96
57.878832845670196,10,6,12,16,100
57.62501767409384,10,6,13,1,108
55.83790169077412,10,6,13,2,112
53.71936533194953,10,6,13,3,116
50.12765478433752,10,6,13,4,120
45.39907767990192,10,6,13,5,124
46.36873225909564,10,6,13,7,128
52.18598597235414,10,6,13,8,132
55.01540220164844,10,6,13,9,136
58.274092298207606,10,6,13,10,140
61.722997461803274,10,6,13,11,144
67.77510169338733,10,6,13,12,148
114.00813475009375,10,6,13,13,152
68.33194989327603,10,6,13,14,156
62.64669244963345,10,6,13,15,160
59.79771099567252,10,6,13,16,164
59.34783296906215,10,6,14,1,172
57.01688547980903,10,6,14,2,176
54.579799658290575,10,6,14,3,180
50.640615516565106,10,6,14,4,184
45.650103216338344,10,6,14,5,188
46.04801250767536,10,6,14,7,192
51.58495901075669,10,6,14,8,196
54.283761058382886,10,6,14,9,200
56.80013906750353,10,6,14,10,204
59.37395920066838,10,6,14,11,208
62.76349306762019,10,6,14,12,212
67.61274636526782,10,6,14,13,216
113.72485198836523,10,6,14,14,220
67.74526822522188,10,6,14,15,224
62.38273894194943,10,6,14,16,228
61.64908747391722,10,6,15,1,236
58.394091094770864,10,6,15,2,240
55.503827838434766,10,6,15,3,244
51.173953904621705,10,6,15,4,248
45.92612498902097,10,6,15,5,252
45.73163515440007,10,6,15,7,0
51.05735070618385,10,6,15,8,4
53.502437231903556,10,6,15,9,8
55.5678778377254,10,6,15,10,12
57.67824048876337,10,6,15,11,16
59.99303601333697,10,6,15,12,20
62.68639307612473,10,6,15,13,24
68.40695357351755,10,6,15,14,28
113.41763528421365,10,6,15,15,32
67.09015590702109,10,6,15,16,36
66.17620561812687,10,6,16,1,44
60.4534197384966,10,6,16,2,48
56.6927399124576,10,6,16,3,52
51.85563614106497,10,6,16,4,56
46.27094599135633,10,6,16,5,60
45.42127914496042,10,6,16,7,64
50.52077986095471,10,6,16,8,68
52.66346742962392,10,6,16,9,72
54.43865858807696,10,6,16,10,76
56.190816834481595,10,6,16,11,80
57.886321137370075,10,6,16,12,84
59.80346809642294,10,6,16,13,88
63.094103997330606,10,6,16,14,92
67.09478679308725,10,6,16,15,96
112.21050405676223,10,6,16,16,100
45.49124285619895,10,7,8,1,108
45.85067948743433,10,7,8,2,112
44.78957375346983,10,7,8,3,116
44.273868737761134,10,7,8,4,120
43.44077762012058,10,7,8,5,124
40.981174227374225,10,7,8,6,128
93.31446033197636,10,7,8,8,132
51.09465966907635,10,7,8,9,136
48.74354471867224,10,7,8,10,140
47.52705044215526,10,7,8,11,144
47.59398044138654,10,7,8,12,148
46.575657171505,10,7,8,13,152
46.274474706460694,10,7,8,14,156
46.00619374990446,10,7,8,15,160
45.74251983185957,10,7,8,16,164
50.18390370891734,10,7,9,1,172
50.27621579798637,10,7,9,2,176
48.96304385751377,10,7,9,3,180
48.04986305428375,10,7,9,4,184
46.78245464886967,10,7,9,5,188
43.656447394138,10,7,9,6,192
51.1327647691466,10,7,9,8,196
100.40284187045569,10,7,9,9,200
58.495899736173214,10,7,9,10,204
54.79987401792934,10,7,9,11,208
54.02175728275255,10,7,9,12,212
52.777862532055565,10,7,9,13,216
52.07304695096915,10,7,9,14,220
51.26599638108077,10,7,9,15,224
50.75301456119171,10,7,9,16,228
52.91674215065368,10,7,10,1,236
52.75807002435266,10,7,10,2,240
51.168521382957586,10,7,10,3,244
49.90790537131772,10,7,10,4,248
48.25167354009607,10,7,10,5,252
44.40119003541389,10,7,10,6,0
48.41469732247665,10,7,10,8,4
58.01728958332397,10,7,10,9,8
106.85991792767946,10,7,10,10,12
62.85117969690381,10,7,10,11,16
59.16344895535646,10,7,10,12,20
57.13848369337585,10,7,10,13,24
55.77815017215811,10,7,10,14,28
54.58634847348937,10,7,10,15,32
53.747589229140274,10,7,10,16,36
54.861407809069284,10,7,11,1,44
54.44875247903633,10,7,11,2,48
52.594562165205666,10,7,11,3,52
51.11057707167652,10,7,11,4,56
49.18941769725289,10,7,11,5,60
44.949897408791564,10,7,11,6,64
47.5178897189943,10,7,11,8,68
54.7677954822166,10,7,11,9,72
63.15453067240473,10,7,11,10,76
111.1604369224235,10,7,11,11,80
65.51439935280901,10,7,11,12,84
61.140504912792736,10,7,11,13,88
58.94226742389153,10,7,11,14,92
57.18392285782021,10,7,11,15,96
56.00089327740731,10,7,11,16,100
56.65764484897655,10,7,12,1,108
55.89747101602999,10,7,12,2,112
53.77824134307838,10,7,12,3,116
52.042200836176264,10,7,12,4,120
49.898923991172204,10,7,12,5,124
45.49680891118424,10,7,12,6,128
47.00945656113466,10,7,12,8,132
53.367773130040746,10,7,12,9,136
59.05551855962012,10,7,12,10,140
65.15240210374986,10,7,12,11,144
111.96837886945357,10,7,12,12,148
67.27345148638679,10,7,12,13,152
62.5002447870963,10,7,12,14,156
59.84761528130211,10,7,12,15,160
58.11029732611802,10,7,12,16,164
58.37570308854941,10,7,13,1,172
57.26115853784238,10,7,13,2,176
54.876570832486216,10,7,13,3,180
52.83865621820696,10,7,13,4,184
50.46213422001119,10,7,13,5,188
45.773628461437184,10,7,13,6,192
46.585074839982255,10,7,13,8,196
52.47997976375936,10,7,13,9,200
57.23401370887385,10,7,13,10,204
60.87154785650008,10,7,13,11,208
67.37914483274439,10,7,13,12,212
113.80362092073844,10,7,13,13,216
68.02887621690327,10,7,13,14,220
62.92622641893543,10,7,13,15,224
60.34040105642065,10,7,13,16,228
60.345369535246846,10,7,14,1,236
58.73528134594432,10,7,14,2,240
55.98377037004664,10,7,14,3,244
53.62075142151718,10,7,14,4,248
50.99638777142367,10,7,14,5,252
46.17282814625489,10,7,14,6,0
46.27887345001352,10,7,14,8,4
51.80525134164096,10,7,14,9,8
55.967345576810914,10,7,14,10,12
58.591729974410605,10,7,14,11,16
62.75270407749495,10,7,14,12,20
68.06436175194403,10,7,14,13,24
113.85466122286927,10,7,14,14,28
68.25544437543579,10,7,14,15,32
63.17840990388863,10,7,14,16,36
62.93029741167838,10,7,15,1,44
60.43700493992075,10,7,15,2,48
57.16357330390637,10,7,15,3,52
54.45572468838045,10,7,15,4,56
51.51674580129458,10,7,15,5,60
46.519582596603726,10,7,15,6,64
46.01895949375478,10,7,15,8,68
51.248364640520805,10,7,15,9,72
55.015500495651104,10,7,15,10,76
57.20342933130359,10,7,15,11,80
60.43700493992075,10,7,15,12,84
63.32674490518845,10,7,15,13,88
68.77569947617687,10,7,15,14,92
113.89272684227845,10,7,15,15,96
68.20716415826315,10,7,15,16,100
67.76528904875624,10,7,16,1,108
62.75270407749495,10,7,16,2,112
58.608454339303464,10,7,16,3,116
55.370372099910895,10,7,16,4,120
52.12315964938351,10,7,16,5,124
46.79406871362789,10,7,16,6,128
45.74795400623943,10,7,16,8,132
50.73462042357237,10,7,16,9,136
54.13367259576323,10,7,16,10,140
55.967174181110906,10,7,16,11,144
58.74011765787809,10,7,16,12,148
60.73798632492592,10,7,16,13,152
63.65448467002531,10,7,16,14,156
68.16163575926286,10,7,16,15,160
113.03637473238032,10,7,16,16,164
45.088707556807925,10,8,9,1,172
44.78679481110479,10,8,9,2,176
45.154615364951425,10,8,9,3,180
44.08412504882693,10,8,9,4,184
43.687567098219816,10,8,9,5,188
43.344415674619256,10,8,9,6,192
40.330355412900666,10,8,9,7,196
89.91304294927731,10,8,9,9,200
49.953435401551225,10,8,9,10,204
47.60031658839841,10,8,9,11,208
46.74102426265757,10,8,9,12,212
46.21526184410211,10,8,9,13,216
46.49009052067982,10,8,9,14,220
45.56456211581688,10,8,9,15,224
45.30018986011737,10,8,9,16,228
50.501428868270494,10,8,10,1,236
49.933206472250454,10,8,10,2,240
50.038002763323775,10,8,10,3,244
48.674943432029934,10,8,10,4,248
47.88174440999258,10,8,10,5,252
47.07378230199942,10,8,10,6,0
42.9975660220122,10,8,10,7,4
50.435093939994665,10,8,10,9,8
101.0300780911535,10,8,10,10,12
58.12574028189838,10,8,10,11,16
54.55621222978928,10,8,10,12,20
53.16182021309163,10,8,10,13,24
52.8701176090774,10,8,10,14,28
51.785087762622254,10,8,10,15,32
50.9812354397757,10,8,10,16,36
53.36777404421058,10,8,11,1,44
52.549908344733616,10,8,11,2,48
52.3905680361652,10,8,11,3,52
50.718797580385974,10,8,11,4,56
49.6594044078036,10,8,11,5,60
48.46673273926302,10,8,11,6,64
43.901645196150405,10,8,11,7,68
48.073240057461476,10,8,11,9,72
58.073794063436964,10,8,11,10,76
106.96823831852318,10,8,11,11,80
61.782947252873896,10,8,11,12,84
57.99413105224128,10,8,11,13,88
56.87671581700821,10,8,11,14,92
55.33098340456807,10,8,11,15,96
54.109478957221356,10,8,11,16,100
55.65750223560172,10,8,12,1,108
54.57112584644698,10,8,12,2,112
54.14669278621859,10,8,12,3,116
52.16364819938509,10,8,12,4,120
50.901753589820174,10,8,12,5,124
49.43051309868109,10,8,12,6,128
44.424619443612166,10,8,12,7,132
47.22246161228287,10,8,12,9,136
54.56161582598548,10,8,12,10,140
61.84475478643896,10,8,12,11,144
109.28176837208916,10,8,12,12,148
64.60040715269616,10,8,12,13,152
60.93344440518756,10,8,12,14,156
58.61501318512199,10,8,12,15,160
56.78374094601673,10,8,12,16,164
57.77040737713325,10,8,13,1,172
56.286118767495225,10,8,13,2,176
55.556517824015835,10,8,13,3,180
53.35745708545897,10,8,13,4,184
51.832556015284524,10,8,13,5,188
50.11073021422585,10,8,13,6,192
44.83726262915846,10,8,13,7,196
46.71884377545806,10,8,13,9,200
53.1720943072136,10,8,13,10,204
58.0261861228767,10,8,13,11,208
64.52982833929713,10,8,13,12,212
111.61256256218059,10,8,13,13,216
66.76807122420018,10,8,13,14,220
62.07695050511108,10,8,13,15,224
59.384428218706816,10,8,13,16,228
60.09448754300605,10,8,14,1,236
58.07899368753163,10,8,14,2,240
57.01767642310821,10,8,14,3,244
54.48754654482323,10,8,14,4,248
52.70898000039343,10,8,14,5,252
50.70780335116368,10,8,14,6,0
45.145717874213155,10,8,14,7,4
46.40461673921844,10,8,14,9,8
52.26535835443243,10,8,14,10,12
56.23791848400378,10,8,14,11,16
60.29272714514982,10,8,14,12,20
66.19211062610486,10,8,14,13,24
112.77922486601531,10,8,14,14,28
67.9004396997094,10,8,14,15,32
62.77150106797811,10,8,14,16,36
62.88634345724483,10,8,15,1,44
60.0046607910858,10,8,15,2,48
58.45380498884906,10,8,15,3,52
55.59558114311639,10,8,15,4,56
53.5376359230155,10,8,15,5,60
51.207995157830865,10,8,15,6,64
45.4136727553165,10,8,15,7,68
46.11918608270619,10,8,15,9,72
51.5663002509962,10,8,15,10,76
55.101760979544544,10,8,15,11,80
58.2599070005407,10,8,15,12,84
61.74242887206835,10,8,15,13,88
68.0417448371704,10,8,15,14,92
113.61194133930557,10,8,15,15,96
68.1485495119785,10,8,15,16,100
68.0032091514182,10,8,16,1,108
62.58142288973702,10,8,16,2,112
60.19408122001726,10,8,16,3,116
56.77161402272409,10,8,16,4,120
54.372550904521496,10,8,16,5,124
51.7646036525326,10,8,16,6,128
45.7214181234958,10,8,16,7,132
45.86752011760693,10,8,16,9,136
51.00859042045301,10,8,16,10,140
54.14734422448251,10,8,16,11,144
56.815131632422535,10,8,16,12,148
59.39979483820961,10,8,16,13,152
63.20309078430887,10,8,16,14,156
68.3466656605919,10,8,16,15,160
113.47655685966645,10,8,16,16,164
45.28840993143106,10,9,10,1,172
45.03725119690897,10,9,10,2,176
45.28879599884334,10,9,10,3,180
44.376890407044556,10,9,10,4,184
44.072017449043756,10,9,10,5,188
43.504239880544624,10,9,10,6,192
42.62885727576295,10,9,10,7,196
40.408918545338885,10,9,10,8,200
90.7710225307414,10,9,10,10,204
50.389225756507265,10,9,10,11,208
47.67947214059333,10,9,10,12,212
46.82003479599651,10,9,10,13,216
46.582169337821654,10,9,10,14,220
46.475844263177954,10,9,10,15,224
45.99035659072611,10,9,10,16,228
50.48638533197023,10,9,11,1,236
49.969190916554794,10,9,11,2,240
49.98249612272156,10,9,11,3,244
48.79193349670944,10,9,11,4,248
48.22188336217642,10,9,11,5,252
47.493883750501666,10,9,11,6,0
45.82607867977585,10,9,11,7,4
42.77289622607197,10,9,11,8,8
50.35401468981415,10,9,11,10,12
101.56904667780701,10,9,11,11,16
57.27718024175768,10,9,11,12,20
53.96821587753725,10,9,11,13,24
53.01709184615867,10,9,11,14,28
52.32623192949616,10,9,11,15,32
51.4913860037602,10,9,11,16,36
53.69854576442557,10,9,12,1,44
52.824456480766834,10,9,12,2,48
52.625545716284165,10,9,12,3,52
51.155833302707165,10,9,12,4,56
50.33467869711358,10,9,12,5,60
49.301683179978205,10,9,12,6,64
47.23585937953193,10,9,12,7,68
43.647801526427465,10,9,12,8,72
47.69937306115268,10,9,12,10,76
57.26261021101334,10,9,12,11,80
105.11973450753699,10,9,12,12,84
61.41930022718226,10,9,12,13,88
57.96279683103077,10,9,12,14,92
56.41668509198771,10,9,12,15,96
55.08879591665842,10,9,12,16,100
56.29086469283267,10,9,13,1,108
55.07181466557099,10,9,13,2,112
54.59439623064272,10,9,13,3,116
52.84588422008448,10,9,13,4,120
51.79584475920736,10,9,13,5,124
50.514877755544155,10,9,13,6,128
48.07640033899751,10,9,13,7,132
44.15652174165758,10,9,13,8,136
46.80459387252185,10,9,13,10,140
54.01199935781363,10,9,13,11,144
61.42839932124993,10,9,13,12,148
108.76057557401013,10,9,13,13,152
64.39957893496616,10,9,13,14,156
60.39763667340293,10,9,13,15,160
58.22182444141311,10,9,13,16,164
58.96389989708414,10,9,14,1,172
57.21459540447806,10,9,14,2,176
56.365657050491734,10,9,14,3,180
54.337813763483126,10,9,14,4,184
53.02251383022987,10,9,14,5,188
51.43567243716691,10,9,14,6,192
48.746815830623795,10,9,14,7,196
44.50736530291959,10,9,14,8,200
46.255814167591915,10,9,14,10,204
52.58865806058323,10,9,14,11,208
57.518406585447636,10,9,14,12,212
63.89309792423826,10,9,14,13,216
110.80866962604505,10,9,14,14,220
66.38468331369847,10,9,14,15,224
61.79808653316545,10,9,14,16,228
62.07715071139668,10,9,15,1,236
59.50438472574631,10,9,15,2,240
58.10814075192498,10,9,15,3,244
55.69672408895006,10,9,15,4,248
54.12408267789232,10,9,15,5,252
52.21535293526993,10,9,15,6,0
49.365923460153724,10,9,15,7,4
44.767616478530634,10,9,15,8,8
45.86640447642514,10,9,15,10,12
51.72413186612402,10,9,15,11,16
55.74113486258067,10,9,15,12,20
59.757505940291374,10,9,15,13,24
66.20797101544774,10,9,15,14,28
112.33479048116384,10,9,15,15,32
67.40494531081909,10,9,15,16,36
67.44725215051007,10,9,16,1,44
62.34219372581486,10,9,16,2,48
60.11443242777959,10,9,16,3,52
57.18956350634123,10,9,16,4,56
55.264889826726936,10,9,16,5,60
53.050297902966584,10,9,16,6,64
49.882842469952315,10,9,16,7,68
44.992965098828414,10,9,16,8,72
45.56241794181942,10,9,16,10,76
51.02352431658826,10,9,16,11,80
54.601293374505524,10,9,16,12,84
57.66310738477001,10,9,16,13,88
61.630876796176864,10,9,16,14,92
67.40613440997102,10,9,16,15,96
112.7696746816947,10,9,16,16,100
46.07836665332091,10,10,11,1,108
46.43617302313116,10,10,11,2,112
45.566236027248365,10,10,11,3,116
45.351649134034645,10,10,11,4,120
45.36192909517642,10,10,11,5,124
44.6874690447706,10,10,11,6,128
44.48908351172401,10,10,11,7,132
43.24668203005271,10,10,11,8,136
40.9342325795401,10,10,11,9,140
92.76057656804927,10,10,11,11,144
51.14141542173479,10,10,11,12,148
48.774057113867585,10,10,11,13,152
47.20274052491527,10,10,11,14,156
46.819894152756454,10,10,11,15,160
46.43624836286612,10,10,11,16,164
51.933217161148974,10,10,12,1,172
51.98128634392418,10,10,12,2,176
50.833516934090426,10,10,12,3,180
50.35357974212151,10,10,12,4,184
50.224889361083804,10,10,12,5,188
49.13557435940956,10,10,12,6,192
48.645506093703446,10,10,12,7,196
46.77918364673535,10,10,12,8,200
43.62946791612565,10,10,12,9,204
51.081333183859286,10,10,12,11,208
101.67474265394274,10,10,12,12,212
58.869372496014485,10,10,12,13,216
54.789105510219926,10,10,12,14,220
53.494802322039305,10,10,12,15,224
52.62095975592727,10,10,12,16,228
55.44531251070753,10,10,13,1,236
55.15281715242507,10,10,13,2,240
53.70961439158543,10,10,13,3,244
52.96774806895268,10,10,13,4,248
52.60958302921528,10,10,13,5,252
51.207015223459145,10,10,13,6,0
50.46047289654087,10,10,13,7,4
48.15918868362423,10,10,13,8,8
44.5298199050099,10,10,13,9,12
48.71213307068745,10,10,13,11,16
58.90189755209291,10,10,13,12,20
107.13025359650656,10,10,13,13,24
62.067110066148686,10,10,13,14,28
58.37312957152715,10,10,13,15,32
56.637331048029836,10,10,13,16,36
58.65525756733628,10,10,14,1,44
57.83249691480806,10,10,14,2,48
56.031400714002835,10,10,14,3,52
54.94462661931031,10,10,14,4,56
54.361042614331616,10,10,14,5,60
52.71834486981316,10,10,14,6,64
51.707407323322364,10,10,14,7,68
49.08448714767995,10,10,14,8,72
45.06995200706587,10,10,14,9,76
47.762412947963824,10,10,14,11,80
55.500574526119294,10,10,14,12,84
62.709504763807196,10,10,14,13,88
109.43738622993384,10,10,14,14,92
64.8846841625769,10,10,14,15,96
60.69651003825181,10,10,14,16,100
62.11716401047036,10,10,15,1,108
60.51278897853268,10,10,15,2,112
58.1764730475422,10,10,15,3,116
56.69289833188043,10,10,15,4,120
55.85701472224067,10,10,15,5,124
53.90817823155951,10,10,15,6,128
52.71920941048378,10,10,15,7,132
49.749898013755455,10,10,15,8,136
45.38935097138929,10,10,15,9,140
47.29765787657787,10,10,15,11,144
54.13367259576323,10,10,15,12,148
58.97048790467288,10,10,15,13,152
64.8573653703691,10,10,15,14,156
111.21282230949441,10,10,15,15,160
66.64816767022278,10,10,15,16,164
67.83356597569671,10,10,16,1,172
63.69959995454966,10,10,16,2,176
60.465016084463045,10,10,16,3,180
58.451116160180405,10,10,16,4,184
57.26924231995083,10,10,16,5,188
55.04405056092588,10,10,16,6,192
53.55763439740061,10,10,16,7,196
50.32395057877416,10,10,16,8,200
45.737723590104885,10,10,16,9,204
46.91801364575889,10,10,16,11,208
53.26930962476969,10,10,16,12,212
57.26924231995083,10,10,16,13,216
60.62565276354145,10,10,16,14,220
66.61804460089859,10,10,16,15,224
112.32622732902338,10,10,16,16,228
48.052820726017096,10,11,12,1,236
47.6957037229223,10,11,12,2,240
47.44522520513785,10,11,12,3,244
47.18068535842851,10,11,12,4,248
47.57687801530085,10,11,12,5,252
46.611109577558274,10,11,12,6,0
46.21430684345135,10,11,12,7,4
45.73816651383342,10,11,12,8,8
44.86523994633866,10,11,12,9,12
42.67019180804831,10,11,12,10,16
93.23547687356684,10,11,12,12,20
52.9301023710382,10,11,12,13,24
49.74593034152606,10,11,12,14,28
48.91348395030069,10,11,12,15,32
48.396730931257615,10,11,12,16,36
53.95546645244163,10,11,13,1,44
53.45209415795518,10,11,13,2,48
52.72498819354171,10,11,13,3,52
52.16779934358721,10,11,13,4,56
52.340682284950766,10,11,13,5,60
51.06970774353975,10,11,13,6,64
50.36792039989499,10,11,13,7,68
49.493110931807415,10,11,13,8,72
48.182252505904565,10,11,13,9,76
45.070995032445495,10,11,13,10,80
52.604769953951305,10,11,13,12,84
103.59684165750659,10,11,13,13,88
59.398463972897396,10,11,13,14,92
56.16716594150001,10,11,13,15,96
54.81991713429691,10,11,13,16,100
58.033373832416984,10,11,14,1,108
57.13488384754284,10,11,14,2,112
55.90385152984028,10,11,14,3,116
55.06566387359534,10,11,14,4,120
54.944960177467166,10,11,14,5,124
53.449402985897905,10,11,14,6,128
52.4857713446312,10,11,14,7,132
51.262652680254256,10,11,14,8,136
49.55469268430408,10,11,14,9,140
45.99182536454654,10,11,14,10,144
50.10097400423555,10,11,14,12,148
60.04530294369546,10,11,14,13,152
107.42676219646295,10,11,14,14,156
63.611656464100314,10,11,14,15,160
59.73221352566585,10,11,14,16,164
62.03218070169095,10,11,15,1,172
60.30967410655881,10,11,15,2,176
58.5303566489752,10,11,15,3,180
57.309961537414196,10,11,15,4,184
56.92495773974142,10,11,15,5,188
55.1640759069859,10,11,15,6,192
53.908445241699354,10,11,15,7,196
52.45955388107325,10,11,15,8,200
50.44620511204448,10,11,15,9,204
46.47103157656579,10,11,15,10,208
49.253487579407825,10,11,15,12,212
56.79245188995578,10,11,15,13,216
63.543711368847866,10,11,15,14,220
110.43348129455381,10,11,15,15,224
66.16388073960623,10,11,15,16,228
68.0559271868868,10,11,16,1,236
63.91081515943325,10,11,16,2,240
61.20229694156629,10,11,16,3,244
59.453657492639245,10,11,16,4,248
58.726435195725145,10,11,16,5,252
56.61959913948197,10,11,16,6,0
55.122882083525546,10,11,16,7,4
53.3464170318301,10,11,16,8,8
51.11866625303264,10,11,16,9,12
46.8776522377949,10,11,16,10,16
48.70730500937019,10,11,16,12,20
55.452504095205555,10,11,16,13,24
59.67255942284148,10,11,16,14,28
66.17477583878187,10,11,16,15,32
112.19473688936115,10,11,16,16,36
46.83130048057118,10,12,13,1,44
47.16335120018117,10,12,13,2,48
46.18113736472852,10,12,13,3,52
45.93291700276096,10,12,13,4,56
45.67215724978809,10,12,13,5,60
45.404691430535124,10,12,13,6,64
45.68320607439654,10,12,13,7,68
44.705856934253376,10,12,13,8,72
44.21436408841816,10,12,13,9,76
43.99092222438836,10,12,13,10,80
41.23959661971554,10,12,13,11,84
92.25071826227078,10,12,13,13,88
50.5783499482128,10,12,13,14,92
48.23488110502553,10,12,13,15,96
47.365044009319135,10,12,13,16,100
53.376671761241475,10,12,14,1,108
53.179341063521385,10,12,14,2,112
51.85318228275442,10,12,14,3,116
51.30131330453212,10,12,14,4,120
50.82468076386097,10,12,14,5,124
50.294233118997866,10,12,14,6,128
50.291052823723575,10,12,14,7,132
48.98357581420534,10,12,14,8,136
48.15038147549237,10,12,14,9,140
47.3688042969711,10,12,14,10,144
43.766078527138504,10,12,14,11,148
51.1911496807403,10,12,14,13,152
101.43573217104479,10,12,14,14,156
58.168727960508754,10,12,14,15,160
54.86115545205902,10,12,14,16,164
58.25745050875922,10,12,15,1,172
57.179923915116056,10,12,15,2,176
55.365832387360356,10,12,15,3,180
54.42601691569955,10,12,15,4,184
53.68324798094324,10,12,15,5,188
52.85218184463828,10,12,15,6,192
52.653365718953445,10,12,15,7,196
51.024078905446245,10,12,15,8,200
49.88166686718243,10,12,15,9,204
48.70304937299935,10,12,15,10,208
44.62307168265314,10,12,15,11,212
48.79896224053008,10,12,15,13,216
58.25368387499306,10,12,15,14,220
105.89755374694676,10,12,15,15,224
62.094527963590146,10,12,15,16,228
64.81520900625547,10,12,16,1,236
61.251482633418604,10,12,16,2,240
58.534754918730066,10,12,16,3,244
57.0506065457805,10,12,16,4,248
56.004750468046424,10,12,16,5,252
54.82541960950112,10,12,16,6,0
54.36384807962968,10,12,16,7,4
52.46590191767804,10,12,16,8,8
51.074640690574995,10,12,16,9,12
49.5940691067884,10,12,16,10,16
45.11381577619092,10,12,16,11,20
47.89836626482682,10,12,16,13,24
54.77156640204817,10,12,16,14,28
62.112781804252776,10,12,16,15,32
108.63835462140533,10,12,16,16,36
48.079681780209825,10,13,14,1,44
48.11901814838175,10,13,14,2,48
47.20661942577439,10,13,14,3,52
46.91546857400302,10,13,14,4,56
47.113748655418796,10,13,14,5,60
46.38721668266129,10,13,14,6,64
46.32014356725885,10,13,14,7,68
45.777909824444684,10,13,14,8,72
45.47366996501115,10,13,14,9,76
45.60295467832436,10,13,14,10,80
44.653666969943366,10,13,14,11,84
42.05932961301444,10,13,14,12,88
92.0787729793644,10,13,14,14,92
51.51929119919487,10,13,14,15,96
49.032243170829844,10,13,14,16,100
55.37366604289932,10,13,15,1,108
54.54707975677611,10,13,15,2,112
53.105478860855456,10,13,15,3,116
52.456494775229594,10,13,15,4,120
52.4063887879092,10,13,15,5,124
51.3210649925564,10,13,15,6,128
51.22363017697774,10,13,15,7,132
50.23183484545152,10,13,15,8,136
49.62269732743231,10,13,15,9,140
49.33097976421999,10,13,15,10,144
47.88785156248269,10,13,15,11,148
44.501390533765054,10,13,15,12,152
51.467316346012986,10,13,15,14,156
101.59015411611297,10,13,15,15,160
58.6800297020642,10,13,15,16,164
62.777284817102256,10,13,16,1,172
59.46343605115581,10,13,16,2,176
57.106123314678086,10,13,16,3,180
55.926928912153826,10,13,16,4,184
55.624885802235795,10,13,16,5,188
54.178085156963306,10,13,16,6,192
53.81622171361039,10,13,16,7,196
52.525303074668145,10,13,16,8,200
51.647517581823585,10,13,16,9,204
51.0904210808629,10,13,16,10,208
49.30208436230731,10,13,16,11,212
45.40772774121345,10,13,16,12,216
48.972413136181366,10,13,16,14,220
58.7086581700847,10,13,16,15,224
106.1034823868002,10,13,16,16,228
48.14332722001391,10,14,15,1,236
47.219718277052586,10,14,15,2,240
47.32335634195452,10,14,15,3,244
46.361034492406795,10,14,15,4,248
46.095685406530436,10,14,15,5,252
46.50676262371991,10,14,15,6,0
45.91109169881709,10,14,15,7,4
45.81945142659938,10,14,15,8,8
44.955416859165524,10,14,15,9,12
44.614569118674574,10,14,15,10,16
44.137794579532354,10,14,15,11,20
43.21271746920023,10,14,15,12,24
40.85974166770784,10,14,15,13,28
91.37944045997939,10,14,15,15,32
50.522961034974216,10,14,15,16,36
58.092259335584544,10,14,16,1,44
54.88808890675994,10,14,16,2,48
53.86877430392603,10,14,16,3,52
52.37456208155587,10,14,16,4,56
51.76372471176834,10,14,16,5,60
51.830299157152936,10,14,16,6,64
51.0789440693765,10,14,16,7,68
50.682650158921255,10,14,16,8,72
49.499975928801604,10,14,16,9,76
48.85452430129613,10,14,16,10,80
48.01821011233169,10,14,16,11,84
46.577492217892605,10,14,16,12,88
43.373780421777724,10,14,16,13,92
50.53251764846584,10,14,16,15,96
100.85501951775214,10,14,16,16,100
50.79234145424927,10,15,16,1,108
48.31757316222565,10,15,16,2,112
47.88087102627767,10,15,16,3,116
46.928611412751216,10,15,16,4,120
46.625196708757954,10,15,16,5,124
46.2804500827757,10,15,16,6,128
46.015914981526144,10,15,16,7,132
46.13496904920771,10,15,16,8,136
46.12194143846076,10,15,16,9,140
45.17970274231867,10,15,16,10,144
44.83871623731527,10,15,16,11,148
44.30678520082817,10,15,16,12,152
43.43388345759494,10,15,16,13,156
40.95018552189318,10,15,16,14,160
91.4894995441612,10,15,16,16,164
92.73881010455929,10,1,2,2,168
51.26035661562858,10,1,2,3,172
48.70853734508185,10,1,2,4,176
47.91482289676639,10,1,2,5,180
47.35643097358524,10,1,2,6,184
46.92385144261536,10,1,2,7,188
46.66810191450031,10,1,2,8,192
46.36478283201563,10,1,2,9,196
46.13982227095533,10,1,2,10,200
45.835682569162785,10,1,2,11,204
45.571132556287616,10,1,2,12,208
45.21681501072872,10,1,2,13,212
44.698321654984625,10,1,2,14,216
43.824763988713606,10,1,2,15,220
41.32523392295259,10,1,2,16,224
51.281559152417664,10,1,3,2,232
102.86923321149342,10,1,3,3,236
58.33792793675903,10,1,3,4,240
55.293373967993965,10,1,3,5,244
53.7706961691656,10,1,3,6,248
52.817428895640816,10,1,3,7,252
52.16871890333143,10,1,3,8,0
51.599404227900386,10,1,3,9,4
51.01674489206561,10,1,3,10,8
50.5401486199491,10,1,3,11,12
49.9717197934833,10,1,3,12,16
49.32218973572414,10,1,3,13,20
48.449277125568514,10,1,3,14,24
47.04505368264323,10,1,3,15,28
43.682693714813375,10,1,3,16,32
48.704014789443875,10,1,4,2,40
58.41200730910004,10,1,4,3,44
109.34491492654311,10,1,4,4,48
63.26372846262522,10,1,4,5,52
58.85235143469405,10,1,4,6,56
56.98302141571932,10,1,4,7,60
55.72431940143647,10,1,4,8,64
54.81014979452589,10,1,4,9,68
53.9357442303169,10,1,4,10,72
53.15754978803629,10,1,4,11,76
52.319462234163545,10,1,4,12,80
51.40538586054361,10,1,4,13,84
50.229618830550685,10,1,4,14,88
48.48089641870247,10,1,4,15,92
44.5825447957024,10,1,4,16,96
47.9033472877648,10,1,5,2,104
55.31775093910537,10,1,5,3,108
63.23065730921555,10,1,5,4,112
108.27680161034314,10,1,5,5,116
64.9255585322973,10,1,5,6,120
60.738780177319626,10,1,5,7,124
58.645517241823725,10,1,5,8,128
57.25446358370679,10,1,5,9,132
55.98633358513795,10,1,5,10,136
54.97947429216653,10,1,5,11,140
53.89315892563873,10,1,5,12,144
52.754789314003695,10,1,5,13,148
51.30567577995179,10,1,5,14,152
49.296354786368916,10,1,5,15,156
45.07123707363358,10,1,5,16,160
47.353826082318044,10,1,6,2,168
53.824143033405676,10,1,6,3,172
58.83332081763237,10,1,6,4,176
64.95419594478615,10,1,6,5,180
113.02247926517519,10,1,6,6,184
66.74371977332844,10,1,6,7,188
62.2500968757885,10,1,6,8,192
60.02332202850405,10,1,6,9,196
58.18105140827907,10,1,6,10,200
56.78936861151134,10,1,6,11,204
55.39775943814238,10,1,6,12,208
53.992942379604926,10,1,6,13,212
52.28333409448764,10,1,6,14,216
50.01727296408424,10,1,6,15,220
45.435516842557576,10,1,6,16,224
46.961488136456936,10,1,7,2,232
52.8625271991927,10,1,7,3,236
56.91874913696695,10,1,7,4,240
60.71943694844575,10,1,7,5,244
66.75549835383539,10,1,7,6,248
114.92818165057949,10,1,7,7,252
68.06801553721381,10,1,7,8,0
63.32262247186816,10,1,7,9,4
60.56519671604765,10,1,7,10,8
58.64194710662851,10,1,7,11,12
56.85506263700547,10,1,7,12,16
55.14340085527155,10,1,7,13,20
53.137506585784806,10,1,7,14,24
50.59693151288609,10,1,7,15,28
45.745371407415924,10,1,7,16,32
46.620042339735924,10,1,8,2,40
52.16000697568487,10,1,8,3,44
55.696558393131156,10,1,8,4,48
58.62877714908923,10,1,8,5,52
62.248000756798156,10,1,8,6,56
68.01638127087054,10,1,8,7,60
115.41855630402674,10,1,8,8,64
68.94303479803261,10,1,8,9,68
63.480801161694956,10,1,8,10,72
60.69668149438534,10,1,8,11,76
58.33705101795223,10,1,8,12,80
56.26917521181493,10,1,8,13,84
53.913166572768695,10,1,8,14,88
51.12956057360853,10,1,8,15,92
46.01047338018741,10,1,8,16,96
46.34212732828316,10,1,9,2,104
51.59002376295428,10,1,9,3,108
54.73317589856165,10,1,9,4,112
57.2257266247825,10,1,9,5,116
59.98246850657464,10,1,9,6,120
63.290922948522315,10,1,9,7,124
68.92397978719268,10,1,9,8,128
113.08760782099779,10,1,9,9,132
68.35849814402266,10,1,9,10,136
63.20231270550937,10,1,9,11,140
60.00807934417547,10,1,9,12,144
57.39702044458659,10,1,9,13,148
54.73317589856165,10,1,9,14,152
51.631268834091465,10,1,9,15,156
46.25228097625028,10,1,9,16,160
46.08305948196466,10,1,10,2,168
51.06655360036142,10,1,10,3,172
53.90175160670636,10,1,10,4,176
56.046184612136464,10,1,10,5,180
58.19696601747393,10,1,10,6,184
60.55522314091389,10,1,10,7,188
63.51241275515456,10,1,10,8,192
68.4071992259899,10,1,10,9,196
113.85100694260608,10,1,10,10,200
68.27024265375437,10,1,10,11,204
62.41524230054317,10,1,10,12,208
58.890073693522424,10,1,10,13,212
55.69197250411521,10,1,10,14,216
52.205391792805585,10,1,10,15,220
46.56002388826849,10,1,10,16,224
45.82176839876758,10,1,11,2,232
50.540569375176474,10,1,11,3,236
53.12419750653493,10,1,11,4,240
54.96655283210708,10,1,11,5,244
56.79571554944625,10,1,11,6,248
58.64194710662851,10,1,11,7,252
60.64374126845881,10,1,11,8,0
63.21681178947491,10,1,11,9,4
68.23600784536762,10,1,11,10,8
114.28409375278747,10,1,11,11,12
66.83520260806421,10,1,11,12,16
60.89179519373496,10,1,11,13,20
56.822311168989074,10,1,11,14,24
52.859106965309515,10,1,11,15,28
46.831974764658604,10,1,11,16,32
45.50736677867425,10,1,12,2,40
49.972562091919166,10,1,12,3,44
52.28804260811665,10,1,12,4,48
53.90551810644653,10,1,12,5,52
55.3922217786655,10,1,12,6,56
56.87276105613034,10,1,12,7,60
58.356930140233565,10,1,12,8,64
60.057116483217534,10,1,12,9,68
62.39909365676734,10,1,12,10,72
66.81673017623818,10,1,12,11,76
111.48033065999739,10,1,12,12,80
65.15566364449707,10,1,12,13,84
58.55585029821837,10,1,12,14,88
53.719035706080476,10,1,12,15,92
47.16343691225858,10,1,12,16,96
45.14365348360377,10,1,13,2,104
49.35670041079631,10,1,13,3,108
51.40689812531684,10,1,13,4,112
52.757270826707085,10,1,13,5,116
53.993845609357756,10,1,13,6,120
55.11649122124624,10,1,13,7,124
56.254932819982756,10,1,13,8,128
57.43783358131884,10,1,13,9,132
58.868952013462916,10,1,13,10,136
60.922856308196906,10,1,13,11,140
65.19012840958722,10,1,13,12,144
109.95030129832539,10,1,13,13,148
62.31433554941906,10,1,13,14,152
55.10228462334199,10,1,13,15,156
47.646805012685796,10,1,13,16,160
44.648720613646134,10,1,14,2,168
48.464939784462864,10,1,14,3,172
50.209840303717584,10,1,14,4,176
51.33542899007317,10,1,14,5,180
52.306547287206776,10,1,14,6,184
53.140990807722034,10,1,14,7,188
53.961207288282054,10,1,14,8,192
54.79565394531924,10,1,14,9,196
55.70958177830981,10,1,14,10,200
56.84869277204429,10,1,14,11,204
58.58501156194772,10,1,14,12,208
62.3339869814434,10,1,14,13,212
106.03670687334808,10,1,14,14,216
58.48751510339539,10,1,14,15,220
48.54429485866498,10,1,14,16,224
43.771885342893974,10,1,15,2,232
47.09124747517684,10,1,15,3,236
48.43817740667305,10,1,15,4,240
49.31407652586903,10,1,15,5,244
49.98011054882152,10,1,15,6,248
50.53599155539657,10,1,15,7,252
51.154986400358425,10,1,15,8,0
51.634843213074,10,1,15,9,4
52.1874268996659,10,1,15,10,8
52.84936635621885,10,1,15,11,12
53.724040573583125,10,1,15,12,16
55.07342578029573,10,1,15,13,20
58.46277552413899,10,1,15,14,24
101.27898355662495,10,1,15,15,28
50.99593592740384,10,1,15,16,32
41.28036009083071,10,1,16,2,40
43.68685135532173,10,1,16,3,44
44.557416099061086,10,1,16,4,48
45.03621674090004,10,1,16,5,52
45.432190427623404,10,1,16,6,56
45.73628456019547,10,1,16,7,60
45.99782670488541,10,1,16,8,64
46.22653798380264,10,1,16,9,68
46.52982013606167,10,1,16,10,72
46.818256171944526,10,1,16,11,76
47.17457876991578,10,1,16,12,80
47.690132418319905,10,1,16,13,84
48.56285273285662,10,1,16,14,88
50.95716221394044,10,1,16,15,92
90.94164146753563,10,1,16,16,96
40.08691312158006,10,2,3,1,104
92.09394791564581,10,2,3,3,108
49.7701732696065,10,2,3,4,112
47.45461718664425,10,2,3,5,116
46.7941092827866,10,2,3,6,120
46.66437651924498,10,2,3,7,124
45.58970000421383,10,2,3,8,128
45.286307268939844,10,2,3,9,132
45.46140726188835,10,2,3,10,136
44.756473822580155,10,2,3,11,140
45.153522115369825,10,2,3,12,144
44.570714667311066,10,2,3,13,148
43.989490704566684,10,2,3,14,152
43.31565533089367,10,2,3,15,156
42.48168428638974,10,2,3,16,160
42.553025015693535,10,2,4,1,168
49.760062461927724,10,2,4,3,172
103.19711928998531,10,2,4,4,176
57.972001696011354,10,2,4,5,180
54.33895909136435,10,2,4,6,184
53.28025137133985,10,2,4,7,188
51.6113571144155,10,2,4,8,192
51.00220264024283,10,2,4,9,196
51.01510786695082,10,2,4,10,200
50.211601938042925,10,2,4,11,204
50.06181600432599,10,2,4,12,208
49.36328013996305,10,2,4,13,212
48.15533587944716,10,2,4,14,216
47.24472403050268,10,2,4,15,220
45.89190284602173,10,2,4,16,224
43.40677790448153,10,2,5,1,232
47.454962467443316,10,2,5,3,236
57.93013034342965,10,2,5,4,240
104.32651300618183,10,2,5,5,244
61.50900034803401,10,2,5,6,248
57.862678904231494,10,2,5,7,252
55.400534133433,10,2,5,8,0
54.27819253020561,10,2,5,9,4
53.89254413274633,10,2,5,10,8
52.7415130602082,10,2,5,11,12
52.46326496286281,10,2,5,12,16
51.53635310760522,10,2,5,13,20
50.33142520350059,10,2,5,14,24
48.901463461966266,10,2,5,15,28
47.20553535073243,10,2,5,16,32
43.99762127350175,10,2,6,1,40
46.475103345486566,10,2,6,3,44
54.13333724299264,10,2,6,4,48
61.024205299135986,10,2,6,5,52
110.24542418793891,10,2,6,6,56
64.44169628190782,10,2,6,7,60
59.539987292381475,10,2,6,8,64
57.5796863699431,10,2,6,9,68
56.663536948636484,10,2,6,10,72
55.07375712357732,10,2,6,11,76
54.46736151049949,10,2,6,12,80
53.310323316569956,10,2,6,13,84
51.94666592585397,10,2,6,14,88
50.15743017734116,10,2,6,15,92
48.14443779041884,10,2,6,16,96
44.368903234798736,10,2,7,1,104
45.93049584881573,10,2,7,3,108
52.609098383685236,10,2,7,4,112
57.15516951114109,10,2,7,5,116
64.31179493492313,10,2,7,6,120
113.05301240146636,10,2,7,7,124
65.7589665200627,10,2,7,8,128
61.26406551177107,10,2,7,9,132
59.434922056114985,10,2,7,10,136
57.44719484997291,10,2,7,11,140
56.34565750712808,10,2,7,12,144
54.84820381245109,10,2,7,13,148
53.17844482350343,10,2,7,14,152
51.12891247842161,10,2,7,15,156
48.85926558735035,10,2,7,16,160
44.6773718042304,10,2,8,1,168
45.57565703016725,10,2,8,3,172
51.702169478492245,10,2,8,4,176
55.411190579900726,10,2,8,5,180
60.12926697660963,10,2,8,6,184
66.4288126578796,10,2,8,7,188
113.98798630274331,10,2,8,8,192
67.20691782795551,10,2,8,9,196
62.67300018389353,10,2,8,10,200
59.774347322745,10,2,8,11,204
58.10358094407084,10,2,8,12,208
56.29638689766833,10,2,8,13,212
54.36593709326991,10,2,8,14,216
52.0036905183044,10,2,8,15,220
49.43319160329315,10,2,8,16,224
44.91675347704045,10,2,9,1,232
45.262053833934104,10,2,9,3,236
51.042690438476704,10,2,9,4,240
54.27634861427595,10,2,9,5,244
58.119049307741314,10,2,9,6,248
61.974419608179275,10,2,9,7,252
67.2864729392278,10,2,9,8,0
112.129171599249,10,2,9,9,4
67.81511190591253,10,2,9,10,8
62.637891903125855,10,2,9,11,12
60.04884398595402,10,2,9,12,16
57.72051001183352,10,2,9,13,20
55.44476358350433,10,2,9,14,24
52.77801990015432,10,2,9,15,28
49.94194714753245,10,2,9,16,32
45.178079633874454,10,2,10,1,40
45.0182387242496,10,2,10,3,44
50.43958907557762,10,2,10,4,48
53.355703659896186,10,2,10,5,52
56.54934063842773,10,2,10,6,56
59.49163476155138,10,2,10,7,60
62.05912428011602,10,2,10,8,64
67.20691782795551,10,2,10,9,68
113.61728691097207,10,2,10,10,72
68.121509540191,10,2,10,11,76
62.75270407749495,10,2,10,12,80
59.53146132519699,10,2,10,13,84
56.628979418512294,10,2,10,14,88
53.61980530005506,10,2,10,15,92
50.47939012380102,10,2,10,16,96
45.44981343525989,10,2,11,1,104
44.75766639221126,10,2,11,3,108
49.91682730135197,10,2,11,4,112
52.57793641464532,10,2,11,5,116
55.334455148253184,10,2,11,6,120
57.84225641069923,10,2,11,7,124
59.487211256489005,10,2,11,8,128
62.27278417886903,10,2,11,9,132
68.2769451000723,10,2,11,10,136
114.53491747323369,10,2,11,11,140
67.38469278038428,10,2,11,12,144
61.8072564223917,10,2,11,13,148
58.029371814297946,10,2,11,14,152
54.53988394125674,10,2,11,15,156
51.00298657349889,10,2,11,16,160
45.79797859395914,10,2,12,1,168
44.48317437618055,10,2,12,3,172
49.38933313302105,10,2,12,4,176
51.78727221288684,10,2,12,5,180
54.275798656533766,10,2,12,6,184
56.34665159763219,10,2,12,7,188
57.47402785302481,10,2,12,8,192
59.381968404048884,10,2,12,9,196
62.7076877730931,10,2,12,10,200
67.23792552746669,10,2,12,11,204
112.39539615226951,10,2,12,12,208
66.36745184000796,10,2,12,13,212
60.12325601857254,10,2,12,14,216
55.71149888082827,10,2,12,15,220
51.6912249541501,10,2,12,16,224
46.138747756738766,10,2,13,1,232
44.217376963446675,10,2,13,3,236
48.85524340750029,10,2,13,4,240
51.00289161373629,10,2,13,5,244
53.17844482350343,10,2,13,6,248
54.99030233668868,10,2,13,7,252
55.760727574133455,10,2,13,8,0
57.15147268751409,10,2,13,9,4
59.56358429280919,10,2,13,10,8
61.643608699053175,10,2,13,11,12
66.41475073814806,10,2,13,12,16
111.53334987072272,10,2,13,13,20
64.30763521735,10,2,13,14,24
57.40723966251197,10,2,13,15,28
52.56587906311314,10,2,13,16,32
46.658895932454676,10,2,14,1,40
43.86436484440531,10,2,14,3,44
48.15365175395341,10,2,14,4,48
50.11352128789202,10,2,14,5,52
51.99442218555487,10,2,14,6,56
53.517946161714725,10,2,14,7,60
53.955649562259964,10,2,14,8,64
55.00333233766539,10,2,14,9,68
56.84689510519286,10,2,14,10,72
57.9612354461392,10,2,14,11,76
60.341947685601646,10,2,14,12,80
64.38664631692733,10,2,14,13,84
108.57495585477602,10,2,14,14,88
61.32686213681439,10,2,14,15,92
53.90375619343235,10,2,14,16,96
47.51708718900932,10,2,15,1,104
43.33500687969519,10,2,15,3,108
47.30515734216245,10,2,15,4,112
48.92092705665329,10,2,15,5,116
50.61598460712118,10,2,15,6,120
51.83769984726023,10,2,15,7,124
51.984675179753154,10,2,15,8,128
52.76532372934446,10,2,15,9,132
54.205091498766876,10,2,15,10,136
54.55359900529684,10,2,15,11,140
56.35066321547137,10,2,15,12,144
57.95348677794077,10,2,15,13,148
61.83858820613159,10,2,15,14,152
105.16267277089551,10,2,15,15,156
57.2430868331494,10,2,15,16,160
50.06214810219901,10,2,16,1,168
42.47793381925803,10,2,16,3,172
45.892196067086026,10,2,16,4,176
47.20265073739819,10,2,16,5,180
48.54042334442568,10,2,16,6,184
49.492706855490816,10,2,16,7,188
49.38768244053568,10,2,16,8,192
49.903138340000886,10,2,16,9,196
50.98841280873786,10,2,16,10,200
51.02938139590928,10,2,16,11,204
52.31209812863972,10,2,16,12,208
52.987351258387825,10,2,16,13,212
54.33767370005242,10,2,16,14,216
57.172675231010494,10,2,16,15,220
99.72895049543797,10,2,16,16,224
42.97598366639317,10,3,4,1,232
40.43770798759677,10,3,4,2,236
93.87447647719726,10,3,4,4,240
50.95641900539789,10,3,4,5,244
48.70786158831903,10,3,4,6,248
47.43901013523007,10,3,4,7,252
47.18495659564018,10,3,4,8,0
46.13846745314679,10,3,4,9,4
45.876886890917696,10,3,4,10,8
45.56979443709027,10,3,4,11,12
45.31878631209988,10,3,4,12,16
45.09461386554753,10,3,4,13,20
45.42648978840787,10,3,4,14,24
44.35332721706707,10,3,4,15,28
43.86458793689358,10,3,4,16,32
46.162312971448095,10,3,5,1,40
42.74936894675458,10,3,5,2,44
50.91582945632985,10,3,5,4,48
99.14626181164863,10,3,5,5,52
57.90381822727646,10,3,5,6,56
54.30395030634565,10,3,5,7,60
53.255598147976315,10,3,5,8,64
52.186801561527304,10,3,5,9,68
51.04488261337591,10,3,5,10,72
50.52887722201286,10,3,5,11,76
50.00273929083089,10,3,5,12,80
49.562831564049354,10,3,5,13,84
49.626987565401734,10,3,5,14,88
48.2955857591775,10,3,5,15,92
47.41914494641575,10,3,5,16,96
47.63954142878888,10,3,6,1,104
43.65667800339553,10,3,6,2,108
48.06532589811212,10,3,6,4,112
57.269921334930146,10,3,6,5,116
107.50380884956947,10,3,6,6,120
61.933232052743726,10,3,6,7,124
58.34267674062422,10,3,6,8,128
56.528148303815854,10,3,6,9,132
54.74980834962373,10,3,6,10,136
53.87922152633657,10,3,6,11,140
53.04139517626445,10,3,6,12,144
52.303165492064544,10,3,6,13,148
52.101859881204525,10,3,6,14,152
50.8037136923074,10,3,6,15,156
49.337553500489165,10,3,6,16,160
48.57113676913152,10,3,7,1,168
44.23959980792114,10,3,7,2,172
47.0740960872592,10,3,7,4,176
53.976118346847464,10,3,7,5,180
62.150766460153434,10,3,7,6,184
111.25383097779469,10,3,7,7,188
65.08012127725111,10,3,7,8,192
60.78611018595353,10,3,7,9,196
58.08337464515053,10,3,7,10,200
56.6524004628168,10,3,7,11,204
55.42024602108744,10,3,7,12,208
54.37454491150997,10,3,7,13,212
53.87159838437117,10,3,7,14,216
52.31045949224902,10,3,7,15,220
50.57461945646018,10,3,7,16,224
49.2836901967466,10,3,8,1,232
44.645716656066426,10,3,8,2,236
46.51431929891168,10,3,8,4,240
52.58040833920625,10,3,8,5,244
58.30760187227948,10,3,8,6,248
64.85134278262616,10,3,8,7,252
113.18556823404509,10,3,8,8,0
67.13506970811616,10,3,8,9,4
61.67001273759441,10,3,8,10,8
59.36788798670152,10,3,8,11,12
57.61856689190287,10,3,8,12,16
56.130693863478264,10,3,8,13,20
55.34907817163898,10,3,8,14,24
53.639844741465716,10,3,8,15,28
51.549391076583156,10,3,8,16,32
49.84289868722969,10,3,9,1,40
44.89217201387514,10,3,9,2,44
46.16396733546048,10,3,9,4,48
51.79438577164226,10,3,9,5,52
56.61377148760491,10,3,9,6,56
60.604585440783694,10,3,9,7,60
67.21354702301373,10,3,9,8,64
111.93664407461569,10,3,9,9,68
67.10858006721556,10,3,9,10,72
62.49567623842246,10,3,9,11,76
59.77942783136769,10,3,9,12,80
57.87509270918493,10,3,9,13,84
56.74626275984269,10,3,9,14,88
54.76146969537458,10,3,9,15,92
52.36319006533949,10,3,9,16,96
50.41219451429168,10,3,10,1,104
45.20267074896875,10,3,10,2,108
45.828542533251,10,3,10,4,112
51.07240611574271,10,3,10,5,116
55.366029157560284,10,3,10,6,120
58.44011914926193,10,3,10,7,124
62.34941402673728,10,3,10,8,128
67.69070195322264,10,3,10,9,132
113.60836075377297,10,3,10,10,136
68.10643828264958,10,3,10,11,140
62.7739390521717,10,3,10,12,144
59.92459983992239,10,3,10,13,148
58.228097537827374,10,3,10,14,152
55.7669027207243,10,3,10,15,156
53.165990979738446,10,3,10,16,160
50.85785477929089,10,3,11,1,168
45.43391378620713,10,3,11,2,172
45.57019715802218,10,3,11,4,176
50.53967776342127,10,3,11,5,180
54.46430590229003,10,3,11,6,184
57.02105941505006,10,3,11,7,188
60.043037639284066,10,3,11,8,192
62.998967367435554,10,3,11,9,196
68.0237597212285,10,3,11,10,200
114.82531137331172,10,3,11,11,204
67.67036308855855,10,3,11,12,208
62.41634366069282,10,3,11,13,212
59.89725096744075,10,3,11,14,216
56.99449488938663,10,3,11,15,220
53.95922132447244,10,3,11,16,224
51.460833448998564,10,3,12,1,232
45.69306396299061,10,3,12,2,236
45.29925116679093,10,3,12,4,240
50.02890317960483,10,3,12,5,244
53.6170208576258,10,3,12,6,248
55.72814225596752,10,3,12,7,252
58.285920986449725,10,3,12,8,0
60.379848060315105,10,3,12,9,4
62.764919562916084,10,3,12,10,8
67.71324938309262,10,3,12,11,12
113.45794561300335,10,3,12,12,16
67.25846811980189,10,3,12,13,20
62.20882157783339,10,3,12,14,24
58.431691412105394,10,3,12,15,28
54.89320087541547,10,3,12,16,32
52.06612075991851,10,3,13,1,40
46.00073228103192,10,3,13,2,44
45.03420136404068,10,3,13,4,48
49.514561457778385,10,3,13,5,52
52.882832263259424,10,3,13,6,56
54.640537983069265,10,3,13,7,60
56.80067809879326,10,3,13,8,64
58.40414343698812,10,3,13,9,68
59.93235346545726,10,3,13,10,72
62.46409379154285,10,3,13,11,76
67.22296985615174,10,3,13,12,80
113.07455319947567,10,3,13,13,84
66.58141418696573,10,3,13,14,88
60.484890691664674,10,3,13,15,92
55.99319844455485,10,3,13,16,96
52.99031247101648,10,3,14,1,104
46.33912979162605,10,3,14,2,108
44.732795015109076,10,3,14,4,112
49.00207041424145,10,3,14,5,116
52.03354694827502,10,3,14,6,120
53.40117267854636,10,3,14,7,124
55.35886714854586,10,3,14,8,128
56.617433220917285,10,3,14,9,132
57.602673587498074,10,3,14,10,136
59.27132315080798,10,3,14,11,140
61.52152674644254,10,3,14,12,144
65.9507022158892,10,3,14,13,148
111.17488279826807,10,3,14,14,152
64.79310787876766,10,3,14,15,156
57.770210758845124,10,3,14,16,160
54.37006970799181,10,3,15,1,168
46.86226619563696,10,3,15,2,172
44.369215226146096,10,3,15,4,176
48.342717797941525,10,3,15,5,180
51.11533352261927,10,3,15,6,184
52.06506830156338,10,3,15,7,188
53.94654157734454,10,3,15,8,192
54.917144957321426,10,3,15,9,196
55.470632448895856,10,3,15,10,200
56.64873681654913,10,3,15,11,204
58.030433489430514,10,3,15,12,208
60.08030838316992,10,3,15,13,212
64.98627063569685,10,3,15,14,216
109.08520692733012,10,3,15,15,220
61.56717324398953,10,3,15,16,224
57.70125448739418,10,3,16,1,232
47.70373879496119,10,3,16,2,236
43.880399782303485,10,3,16,4,240
47.45230788398883,10,3,16,5,244
49.9162218442337,10,3,16,6,248
50.607170181314814,10,3,16,7,252
52.236751945710274,10,3,16,8,0
52.92083090216735,10,3,16,9,4
53.17195826398662,10,3,16,10,8
54.007224099742594,10,3,16,11,12
54.88385925915861,10,3,16,12,16
56.04672990037271,10,3,16,13,20
58.416284004590246,10,3,16,14,24
62.112392091322604,10,3,16,15,28
105.5114325551868,10,3,16,16,32
44.7737393397065,10,4,5,1,40
43.84910743399882,10,4,5,2,44
41.672223639435806,10,4,5,3,48
89.75777809947695,10,4,5,5,52
50.80196356688262,10,4,5,6,56
48.4020184723777,10,4,5,7,60
47.709887059037044,10,4,5,8,64
47.20007512142493,10,4,5,9,68
46.76077765320187,10,4,5,10,72
46.53567095880009,10,4,5,11,76
46.23318139037216,10,4,5,12,80
46.06415101923253,10,4,5,13,84
45.85764470872704,10,4,5,14,88
45.59047532197603,10,4,5,15,92
45.139416025918,10,4,5,16,96
49.13736216385191,10,4,6,1,104
47.64597897998012,10,4,6,2,108
44.51196662310846,10,4,6,3,112
50.772469076357226,10,4,6,5,116
103.22201526484767,10,4,6,6,120
58.784465366838475,10,4,6,7,124
55.650973462122344,10,4,6,8,128
54.317067422839436,10,4,6,9,132
53.2977376654925,10,4,6,10,136
52.70774129076031,10,4,6,11,140
52.08536841791462,10,4,6,12,144
51.6098473738947,10,4,6,13,148
51.18818688218485,10,4,6,14,152
50.65980131677813,10,4,6,15,156
49.861782814694735,10,4,6,16,160
51.04391772565223,10,4,7,1,168
49.187328891371976,10,4,7,2,172
45.503402736822736,10,4,7,3,176
48.48851368104142,10,4,7,5,180
58.87332942867551,10,4,7,6,184
108.96752850201887,10,4,7,7,188
63.31847490570345,10,4,7,8,192
59.531623733919815,10,4,7,9,196
57.56330829518016,10,4,7,10,200
56.475201638540675,10,4,7,11,204
55.43386547177392,10,4,7,12,208
54.69311765720308,10,4,7,13,212
53.96591647234051,10,4,7,14,216
53.13314127480766,10,4,7,15,220
52.07393784911018,10,4,7,16,224
52.3105145140451,10,4,8,1,232
50.11642926555006,10,4,8,2,236
46.027645307341956,10,4,8,3,240
47.68380237535394,10,4,8,5,244
55.65676308423835,10,4,8,6,248
63.24408794478214,10,4,8,7,252
111.89233504198138,10,4,8,8,0
66.3956191604581,10,4,8,9,4
61.771573166880195,10,4,8,10,8
59.75937231263619,10,4,8,11,12
58.18410497402996,10,4,8,12,16
57.05997794570063,10,4,8,13,20
56.015720487811635,10,4,8,14,24
54.88002978157824,10,4,8,15,28
53.60585547176183,10,4,8,16,32
53.219572224748,10,4,9,1,40
50.77528261083225,10,4,9,2,44
46.42260877093341,10,4,9,3,48
47.204287893202746,10,4,9,5,52
54.26803907216783,10,4,9,6,56
59.44084520192438,10,4,9,7,60
66.39132471998718,10,4,9,8,64
111.50127138331341,10,4,9,9,68
67.59527691385702,10,4,9,10,72
63.2005245681018,10,4,9,11,76
60.78682338567244,10,4,9,12,80
59.15070399173279,10,4,9,13,84
57.76161263377407,10,4,9,14,88
56.31534780019153,10,4,9,15,92
54.82274182617666,10,4,9,16,96
54.05298947137768,10,4,10,1,104
51.37987322861738,10,4,10,2,108
46.74165798774032,10,4,10,3,112
46.82005403507623,10,4,10,5,116
53.40607129397814,10,4,10,6,120
57.630814370018825,10,4,10,7,124
61.828107112561206,10,4,10,8,128
67.62667915361001,10,4,10,9,132
113.92144224476573,10,4,10,10,136
69.14503465861343,10,4,10,11,140
64.03848826301314,10,4,10,12,144
61.50952783706551,10,4,10,13,148
59.56453535718505,10,4,10,14,152
57.777579175573834,10,4,10,15,156
55.91915682190475,10,4,10,16,160
54.863907901017924,10,4,11,1,168
51.88045444464507,10,4,11,2,172
47.01645968234136,10,4,11,3,176
46.5658824125403,10,4,11,5,180
52.75493628934351,10,4,11,6,184
56.42427676675682,10,4,11,7,188
59.7491088162354,10,4,11,8,192
63.23026697464725,10,4,11,9,196
69.07116690149229,10,4,11,10,200
115.9152051034565,10,4,11,11,204
69.20493039804573,10,4,11,12,208
64.27648359254677,10,4,11,13,212
61.497213436591586,10,4,11,14,216
59.179584230708315,10,4,11,15,220
56.99472486433126,10,4,11,16,224
55.69012029927862,10,4,12,1,232
52.393415491018295,10,4,12,2,236
47.26127010396564,10,4,12,3,240
46.31201479585703,10,4,12,5,244
52.1968084851172,10,4,12,6,248
55.45112580502419,10,4,12,7,252
58.29806474614764,10,4,12,8,0
60.884254095298125,10,4,12,9,4
64.04263165167526,10,4,12,10,8
69.29343221028893,10,4,12,11,12
114.82744563789188,10,4,12,12,16
69.36806020258953,10,4,12,13,20
64.04376083752963,10,4,12,14,24
60.86615897270302,10,4,12,15,28
58.168301298091116,10,4,12,16,32
56.606848410911574,10,4,13,1,40
52.92925247426396,10,4,13,2,44
47.53146999930689,10,4,13,3,48
46.089308469622395,10,4,13,5,52
51.67025963699408,10,4,13,6,56
54.673128733096824,10,4,13,7,60
57.101157249725844,10,4,13,8,64
59.214142610545586,10,4,13,9,68
61.43963740561094,10,4,13,10,72
64.32888128487767,10,4,13,11,76
69.29343221028893,10,4,13,12,80
