BIOZ1_TOMO,EXC_FREQ_KHZ,GND_OUTPUT,EXC_OUTPUT,SENSE_OUTPUT,PACKET_NUMBER
132.3581274258595,10,1,3,8,17
132.38630463929368,10,1,3,8,18
132.38630463929368,10,1,3,8,19
132.3581274258595,10,1,3,8,20
132.3581274258595,10,1,3,8,21
134.13146640515356,10,1,3,8,22
132.3581274258595,10,1,3,8,23
132.38630463929368,10,1,3,8,24
132.3581274258595,10,1,3,8,25
132.3581274258595,10,1,3,8,26
134.10291775000806,10,1,3,8,27
132.33846266079846,10,1,3,8,28
132.38630463929368,10,1,3,8,29
132.38630463929368,10,1,3,8,30
132.38630463929368,10,1,3,8,31
132.36662731435706,10,1,3,8,32
134.13146640515356,10,1,3,8,33
132.3581274258595,10,1,3,8,34
132.3581274258595,10,1,3,8,35
132.38630463929368,10,1,3,8,36
132.33846266079846,10,1,3,8,37
132.36662731435706,10,1,3,8,38
132.38630463929368,10,1,3,8,39
134.13146640515356,10,1,3,8,40
132.38630463929368,10,1,3,8,41
132.38630463929368,10,1,3,8,42
132.38630463929368,10,1,3,8,43
132.38630463929368,10,1,3,8,44
132.38630463929368,10,1,3,8,45
132.38630463929368,10,1,3,8,46
132.38630463929368,10,1,3,8,47
136.05253937005853,10,1,3,8,48
132.38630463929368,10,1,3,8,49
132.38630463929368,10,1,3,8,50
132.38630463929368,10,1,3,8,51
132.38630463929368,10,1,3,8,52
132.3581274258595,10,1,3,8,53
132.38630463929368,10,1,3,8,54
132.38630463929368,10,1,3,8,55
132.38630463929368,10,1,3,8,56
134.13146640515356,10,1,3,8,57
132.38630463929368,10,1,3,8,58
134.13146640515356,10,1,3,8,59
132.38630463929368,10,1,3,8,60
132.38630463929368,10,1,3,8,61
132.38630463929368,10,1,3,8,62
132.41449092638413,10,1,3,8,63
132.36662731435706,10,1,3,8,64
132.38630463929368,10,1,3,8,65
132.38630463929368,10,1,3,8,66
132.38630463929368,10,1,3,8,67
132.38630463929368,10,1,3,8,68
132.38630463929368,10,1,3,8,69
132.38630463929368,10,1,3,8,70
132.38630463929368,10,1,3,8,71
132.38630463929368,10,1,3,8,72
132.36662731435706,10,1,3,8,73
132.38630463929368,10,1,3,8,74
134.13146640515356,10,1,3,8,75
132.36662731435706,10,1,3,8,76
132.38630463929368,10,1,3,8,77
132.36662731435706,10,1,3,8,78
132.38630463929368,10,1,3,8,79
132.38630463929368,10,1,3,8,80
134.13146640515356,10,1,3,8,81
132.33846266079846,10,1,3,8,82
132.36662731435706,10,1,3,8,83
132.36662731435706,10,1,3,8,84
132.33846266079846,10,1,3,8,85
132.33846266079846,10,1,3,8,86
134.11152968695697,10,1,3,8,87
132.36662731435706,10,1,3,8,88
134.0829937572556,10,1,3,8,89
132.33846266079846,10,1,3,8,90
132.33846266079846,10,1,3,8,91
132.33846266079846,10,1,3,8,92
132.33846266079846,10,1,3,8,93
132.36662731435706,10,1,3,8,94
132.36662731435706,10,1,3,8,95
134.11152968695697,10,1,3,8,96
132.33846266079846,10,1,3,8,97
132.33846266079846,10,1,3,8,98
132.33846266079846,10,1,3,8,99
132.36662731435706,10,1,3,8,100
132.36662731435706,10,1,3,8,101
132.33846266079846,10,1,3,8,102
132.33846266079846,10,1,3,8,103
132.31879774777826,10,1,3,8,104
132.33846266079846,10,1,3,8,105
132.33846266079846,10,1,3,8,106
132.31879774777826,10,1,3,8,107
132.36662731435706,10,1,3,8,108
132.36662731435706,10,1,3,8,109
132.33846266079846,10,1,3,8,110
132.36662731435706,10,1,3,8,111
132.31879774777826,10,1,3,8,112
132.31879774777826,10,1,3,8,113
132.33846266079846,10,1,3,8,114
132.31879774777826,10,1,3,8,115
132.31879774777826,10,1,3,8,116
132.36662731435706,10,1,3,8,117
132.31879774777826,10,1,3,8,118
132.31879774777826,10,1,3,8,119
132.34694984510094,10,1,3,8,120
132.31879774777826,10,1,3,8,121
132.31879774777826,10,1,3,8,122
132.31879774777826,10,1,3,8,123
134.06306961459364,10,1,3,8,124
132.31879774777826,10,1,3,8,125
132.31879774777826,10,1,3,8,126
132.31879774777826,10,1,3,8,127
132.31879774777826,10,1,3,8,128
132.31879774777826,10,1,3,8,129
132.36662731435706,10,1,3,8,130
134.11152968695697,10,1,3,8,131
132.36662731435706,10,1,3,8,132
132.36662731435706,10,1,3,8,133
132.36662731435706,10,1,3,8,134
132.31879774777826,10,1,3,8,135
132.33846266079846,10,1,3,8,136
132.31879774777826,10,1,3,8,137
132.31879774777826,10,1,3,8,138
132.31879774777826,10,1,3,8,139
132.36662731435706,10,1,3,8,140
132.34694984510094,10,1,3,8,141
132.31879774777826,10,1,3,8,142
134.11152968695697,10,1,3,8,143
132.31879774777826,10,1,3,8,144
132.31879774777826,10,1,3,8,145
132.31879774777826,10,1,3,8,146
134.11152968695697,10,1,3,8,147
132.31879774777826,10,1,3,8,148
132.31879774777826,10,1,3,8,149
132.33846266079846,10,1,3,8,150
134.06306961459364,10,1,3,8,151
132.31879774777826,10,1,3,8,152
132.31879774777826,10,1,3,8,153
132.2991326922046,10,1,3,8,154
132.31879774777826,10,1,3,8,155
134.06306961459364,10,1,3,8,156
132.31879774777826,10,1,3,8,157
134.06306961459364,10,1,3,8,158
132.31879774777826,10,1,3,8,159
132.31879774777826,10,1,3,8,160
132.31879774777826,10,1,3,8,161
134.06306961459364,10,1,3,8,162
132.31879774777826,10,1,3,8,163
132.31879774777826,10,1,3,8,164
132.34694984510094,10,1,3,8,165
132.31879774777826,10,1,3,8,166
132.31879774777826,10,1,3,8,167
132.34694984510094,10,1,3,8,168
132.34694984510094,10,1,3,8,169
132.31879774777826,10,1,3,8,170
134.04314532749896,10,1,3,8,171
132.31879774777826,10,1,3,8,172
134.06306961459364,10,1,3,8,173
134.06306961459364,10,1,3,8,174
132.31879774777826,10,1,3,8,175
132.34694984510094,10,1,3,8,176
132.2991326922046,10,1,3,8,177
132.2991326922046,10,1,3,8,178
134.06306961459364,10,1,3,8,179
132.31879774777826,10,1,3,8,180
132.2991326922046,10,1,3,8,181
132.2991326922046,10,1,3,8,182
147.36862012540217,10,1,4,2,184
138.26125552479232,10,1,4,2,185
162.00316440419013,10,1,4,2,186
145.53816371030769,10,1,4,2,187
147.36862012540215,10,1,4,2,188
136.55113847464136,10,1,4,2,189
133.11472137131682,10,1,4,2,190
141.94634880027778,10,1,4,2,191
152.85838068850094,10,1,4,2,192
141.94634880027778,10,1,4,2,193
143.75171353173192,10,1,4,2,194
135.06459121129774,10,1,4,2,195
147.36862012540217,10,1,4,2,196
140.18676071865227,10,1,4,2,197
143.78198554594172,10,1,4,2,198
149.23010580073336,10,1,4,2,199
154.7860603856325,10,1,4,2,200
138.50226353256906,10,1,4,2,201
152.9131888000549,10,1,4,2,202
138.50226353256906,10,1,4,2,203
145.6358369994595,10,1,4,2,204
138.50226353256906,10,1,4,2,205
149.23010580073336,10,1,4,2,206
149.25218859259996,10,1,4,2,207
147.4214598567601,10,1,4,2,208
140.1425260056261,10,1,4,2,209
147.39964462438675,10,1,4,2,210
145.61428600119157,10,1,4,2,211
147.51129622089098,10,1,4,2,212
131.48549509775935,10,1,4,2,213
140.1425260056261,10,1,4,2,214
143.78198554594172,10,1,4,2,215
140.40505325923695,10,1,4,2,216
138.50226353256906,10,1,4,2,217
134.84771375754696,10,1,4,2,218
136.74489683882578,10,1,4,2,219
140.23702535959148,10,1,4,2,220
138.47310311672263,10,1,4,2,221
136.5798856438375,10,1,4,2,222
138.50226353256906,10,1,4,2,223
140.40505325923695,10,1,4,2,224
147.45842428981564,10,1,4,2,225
136.7736847986337,10,1,4,2,226
141.97623178588535,10,1,4,2,227
134.84771375754696,10,1,4,2,228
145.6358369994595,10,1,4,2,229
149.25239706152232,10,1,4,2,230
147.39964462438675,10,1,4,2,231
141.97623178588535,10,1,4,2,232
156.65563767419908,10,1,4,2,233
134.84771375754696,10,1,4,2,234
134.86767129691643,10,1,4,2,235
138.50226353256906,10,1,4,2,236
138.4817681510545,10,1,4,2,237
147.36862012540215,10,1,4,2,238
145.56880285593044,10,1,4,2,239
156.65563767419908,10,1,4,2,240
143.73045029796805,10,1,4,2,241
138.4817681510545,10,1,4,2,242
138.4817681510545,10,1,4,2,243
138.4817681510545,10,1,4,2,244
149.20802292732876,10,1,4,2,245
138.4817681510545,10,1,4,2,246
140.21627327031942,10,1,4,2,247
136.5798856438375,10,1,4,2,248
133.14274509532603,10,1,4,2,249
141.97623178588535,10,1,4,2,250
140.375500973386,10,1,4,2,251
149.20802292732876,10,1,4,2,252
133.14274509532603,10,1,4,2,253
141.97623178588535,10,1,4,2,254
138.50226353256906,10,1,4,2,255
138.50226353256906,10,1,4,2,0
143.85280415273868,10,1,4,2,1
151.03859407150566,10,1,4,2,2
162.0372698128265,10,1,4,2,3
149.25239706152232,10,1,4,2,4
136.7736847986337,10,1,4,2,5
154.7631553494271,10,1,4,2,6
133.44082624102484,10,1,4,2,7
134.84771375754696,10,1,4,2,8
136.7736847986337,10,1,4,2,9
151.03859407150566,10,1,4,2,10
136.55113847464136,10,1,4,2,11
141.97623178588535,10,1,4,2,12
131.46603804834425,10,1,4,2,13
140.12178790024325,10,1,4,2,14
138.31776469115576,10,1,4,2,15
143.73045029796805,10,1,4,2,16
145.56880285593044,10,1,4,2,17
147.4676390936533,10,1,4,2,18
156.65563767419908,10,1,4,2,19
138.4817681510545,10,1,4,2,20
145.61428600119157,10,1,4,2,21
136.72466696267225,10,1,4,2,22
131.41892240108328,10,1,4,2,23
136.5798856438375,10,1,4,2,24
143.7091869874078,10,1,4,2,25
141.97623178588535,10,1,4,2,26
142.1160869159563,10,1,4,3,28
142.06515443544163,10,1,4,3,29
143.80124925629107,10,1,4,3,30
143.83151378188447,10,1,4,3,31
142.09505358113452,10,1,4,3,32
142.1160869159563,10,1,4,3,33
142.09505358113452,10,1,4,3,34
142.06515443544163,10,1,4,3,35
142.06515443544163,10,1,4,3,36
142.1160869159563,10,1,4,3,37
143.83151378188447,10,1,4,3,38
143.85280415273868,10,1,4,3,39
142.08617449381003,10,1,4,3,40
142.09505358113452,10,1,4,3,41
143.85280415273868,10,1,4,3,42
142.06515443544163,10,1,4,3,43
143.83151378188447,10,1,4,3,44
142.09505358113452,10,1,4,3,45
142.08617449381003,10,1,4,3,46
143.85280415273868,10,1,4,3,47
143.85280415273868,10,1,4,3,48
142.09505358113452,10,1,4,3,49
142.09505358113452,10,1,4,3,50
142.1160869159563,10,1,4,3,51
142.09505358113452,10,1,4,3,52
142.1160869159563,10,1,4,3,53
142.09505358113452,10,1,4,3,54
142.06515443544163,10,1,4,3,55
143.83151378188447,10,1,4,3,56
142.09505358113452,10,1,4,3,57
142.09505358113452,10,1,4,3,58
142.09505358113452,10,1,4,3,59
142.09505358113452,10,1,4,3,60
142.09505358113452,10,1,4,3,61
144.01550044332657,10,1,4,3,62
142.09505358113452,10,1,4,3,63
142.09505358113452,10,1,4,3,64
142.1160869159563,10,1,4,3,65
142.1160869159563,10,1,4,3,66
142.09505358113452,10,1,4,3,67
143.85280415273868,10,1,4,3,68
143.80124925629107,10,1,4,3,69
142.09505358113452,10,1,4,3,70
143.83151378188447,10,1,4,3,71
142.06515443544163,10,1,4,3,72
142.09505358113452,10,1,4,3,73
142.09505358113452,10,1,4,3,74
142.09505358113452,10,1,4,3,75
142.09505358113452,10,1,4,3,76
142.09505358113452,10,1,4,3,77
142.09505358113452,10,1,4,3,78
142.09505358113452,10,1,4,3,79
142.08617449381003,10,1,4,3,80
142.1160869159563,10,1,4,3,81
142.1160869159563,10,1,4,3,82
142.1160869159563,10,1,4,3,83
142.1160869159563,10,1,4,3,84
142.09505358113452,10,1,4,3,85
142.1160869159563,10,1,4,3,86
142.1160869159563,10,1,4,3,87
142.1460088210092,10,1,4,3,88
143.83151378188447,10,1,4,3,89
142.09505358113452,10,1,4,3,90
142.1160869159563,10,1,4,3,91
142.1160869159563,10,1,4,3,92
142.09505358113452,10,1,4,3,93
142.09505358113452,10,1,4,3,94
142.1160869159563,10,1,4,3,95
142.09505358113452,10,1,4,3,96
143.85280415273868,10,1,4,3,97
142.09505358113452,10,1,4,3,98
143.85280415273868,10,1,4,3,99
143.85280415273868,10,1,4,3,100
143.83151378188447,10,1,4,3,101
142.09505358113452,10,1,4,3,102
142.09505358113452,10,1,4,3,103
142.09505358113452,10,1,4,3,104
142.09505358113452,10,1,4,3,105
142.09505358113452,10,1,4,3,106
143.83151378188447,10,1,4,3,107
145.5927349291155,10,1,4,3,108
142.044134306774,10,1,4,3,109
142.09505358113452,10,1,4,3,110
142.09505358113452,10,1,4,3,111
142.044134306774,10,1,4,3,112
142.044134306774,10,1,4,3,113
142.09505358113452,10,1,4,3,114
143.83151378188447,10,1,4,3,115
142.09505358113452,10,1,4,3,116
143.83151378188447,10,1,4,3,117
142.07402017989946,10,1,4,3,118
142.044134306774,10,1,4,3,119
143.83151378188447,10,1,4,3,120
142.09505358113452,10,1,4,3,121
142.09505358113452,10,1,4,3,122
143.83151378188447,10,1,4,3,123
142.07402017989946,10,1,4,3,124
142.09505358113452,10,1,4,3,125
142.044134306774,10,1,4,3,126
340.2666959366368,10,1,4,4,128
340.38335880724287,10,1,4,4,129
340.2666959366368,10,1,4,4,130
334.8661500857225,10,1,4,4,131
342.1381986970208,10,1,4,4,132
336.74801660246794,10,1,4,4,133
342.0414811830892,10,1,4,4,134
340.2666959366368,10,1,4,4,135
338.5021540683216,10,1,4,4,136
343.90332579655006,10,1,4,4,137
338.40439735791443,10,1,4,4,138
338.40439735791443,10,1,4,4,139
340.2666959366368,10,1,4,4,140
336.55145575417583,10,1,4,4,141
342.1381986970208,10,1,4,4,142
336.74801660246794,10,1,4,4,143
338.5021540683216,10,1,4,4,144
340.2666959366368,10,1,4,4,145
338.5021540683216,10,1,4,4,146
342.1381986970208,10,1,4,4,147
342.1381986970208,10,1,4,4,148
338.40439735791443,10,1,4,4,149
340.38335880724287,10,1,4,4,150
342.0414811830892,10,1,4,4,151
340.2163496729219,10,1,4,4,152
338.4520688883135,10,1,4,4,153
343.90332579655006,10,1,4,4,154
338.5021540683216,10,1,4,4,155
343.90332579655006,10,1,4,4,156
342.21020537515807,10,1,4,4,157
342.1381986970208,10,1,4,4,158
342.0414811830892,10,1,4,4,159
338.29566773907084,10,1,4,4,160
333.1828377616037,10,1,4,4,161
338.5021540683216,10,1,4,4,162
340.2666959366368,10,1,4,4,163
342.21020537515807,10,1,4,4,164
340.2666959366368,10,1,4,4,165
338.5021540683216,10,1,4,4,166
340.38335880724287,10,1,4,4,167
343.77547822838187,10,1,4,4,168
345.67858251815096,10,1,4,4,169
340.2666959366368,10,1,4,4,170
345.62743550528177,10,1,4,4,171
340.38335880724287,10,1,4,4,172
340.1888984629851,10,1,4,4,173
340.2163496729219,10,1,4,4,174
342.1381986970208,10,1,4,4,175
340.38335880724287,10,1,4,4,176
343.77547822838187,10,1,4,4,177
343.85244145276994,10,1,4,4,178
341.93283727044565,10,1,4,4,179
342.0875755235389,10,1,4,4,180
340.2163496729219,10,1,4,4,181
345.7231215167784,10,1,4,4,182
343.85244145276994,10,1,4,4,183
340.1385637102766,10,1,4,4,184
343.85244145276994,10,1,4,4,185
338.4520688883135,10,1,4,4,186
338.4520688883135,10,1,4,4,187
340.2163496729219,10,1,4,4,188
338.4520688883135,10,1,4,4,189
342.21020537515807,10,1,4,4,190
336.74801660246794,10,1,4,4,191
336.6300938662962,10,1,4,4,192
336.58028567853484,10,1,4,4,193
341.9908723200453,10,1,4,4,194
340.2163496729219,10,1,4,4,195
340.2163496729219,10,1,4,4,196
341.9908723200453,10,1,4,4,197
338.47561821724423,10,1,4,4,198
338.5888606305087,10,1,4,4,199
340.2163496729219,10,1,4,4,200
340.2163496729219,10,1,4,4,201
340.3329952819514,10,1,4,4,202
340.2163496729219,10,1,4,4,203
342.0875755235389,10,1,4,4,204
340.3329952819514,10,1,4,4,205
334.9548793213973,10,1,4,4,206
340.3329952819514,10,1,4,4,207
342.03695219427186,10,1,4,4,208
334.8166028931741,10,1,4,4,209
334.8166028931741,10,1,4,4,210
340.2163496729219,10,1,4,4,211
341.9908723200453,10,1,4,4,212
336.5016592018027,10,1,4,4,213
342.0875755235389,10,1,4,4,214
338.354326642105,10,1,4,4,215
341.9908723200453,10,1,4,4,216
343.85244145276994,10,1,4,4,217
343.85244145276994,10,1,4,4,218
340.3329952819514,10,1,4,4,219
338.4520688883135,10,1,4,4,220
343.85244145276994,10,1,4,4,221
340.2163496729219,10,1,4,4,222
341.94026330126025,10,1,4,4,223
342.0875755235389,10,1,4,4,224
340.2163496729219,10,1,4,4,225
336.69819096671876,10,1,4,4,226
144.24832357640759,10,1,4,5,228
152.84530490016778,10,1,4,5,229
149.2877119405277,10,1,4,5,230
152.95249928173035,10,1,4,5,231
151.0591535652306,10,1,4,5,232
161.88360638705703,10,1,4,5,233
169.20099177708786,10,1,4,5,234
143.99418277090552,10,1,4,5,235
169.1583754252865,10,1,4,5,236
154.6944397946198,10,1,4,5,237
171.12212098235548,10,1,4,5,238
169.26163934836208,10,1,4,5,239
152.84530490016778,10,1,4,5,240
154.71734504780196,10,1,4,5,241
154.71734504780196,10,1,4,5,242
165.6009093009888,10,1,4,5,243
154.6944397946198,10,1,4,5,244
160.0209284030364,10,1,4,5,245
170.97013165063012,10,1,4,5,246
144.24832357640759,10,1,4,5,247
149.1547556618667,10,1,4,5,248
147.57234442093235,10,1,4,5,249
152.9203345971589,10,1,4,5,250
154.60887870411716,10,1,4,5,251
144.24832357640759,10,1,4,5,252
152.95249928173035,10,1,4,5,253
154.6944397946198,10,1,4,5,254
154.6619087939215,10,1,4,5,255
151.25663683066944,10,1,4,5,0
158.29653700740008,10,1,4,5,1
163.7326036768189,10,1,4,5,2
156.42637223375672,10,1,4,5,3
144.21798931021658,10,1,4,5,4
145.68593631482324,10,1,4,5,5
156.45927436501876,10,1,4,5,6
158.4968911953137,10,1,4,5,7
151.20244057156307,10,1,4,5,8
154.6944397946198,10,1,4,5,9
169.1583754252865,10,1,4,5,10
151.23424392080517,10,1,4,5,11
144.24832357640759,10,1,4,5,12
149.34122189372115,10,1,4,5,13
163.7326036768189,10,1,4,5,14
154.60887870411716,10,1,4,5,15
156.3609433603316,10,1,4,5,16
158.21295910452665,10,1,4,5,17
161.84956356225078,10,1,4,5,18
151.0591535652306,10,1,4,5,19
161.82560887921557,10,1,4,5,20
144.21798931021658,10,1,4,5,21
149.31911255299437,10,1,4,5,22
161.84956356225078,10,1,4,5,23
156.40322021479085,10,1,4,5,24
145.8821419478919,10,1,4,5,25
152.76792551630442,10,1,4,5,26
165.48617834096012,10,1,4,5,27
144.24832357640759,10,1,4,5,28
147.60338422948544,10,1,4,5,29
172.81039935627163,10,1,4,5,30
163.65776768492358,10,1,4,5,31
161.88360638705703,10,1,4,5,32
154.67153448133922,10,1,4,5,33
174.9456965770864,10,1,4,5,34
152.82267679466767,10,1,4,5,35
151.20244057156307,10,1,4,5,36
144.19664420340345,10,1,4,5,37
154.6390179258757,10,1,4,5,38
167.36932958762645,10,1,4,5,39
151.18006172506932,10,1,4,5,40
149.2656164850821,10,1,4,5,41
156.45927436501876,10,1,4,5,42
154.67153448133922,10,1,4,5,43
147.60338422948544,10,1,4,5,44
147.60338422948544,10,1,4,5,45
154.6390179258757,10,1,4,5,46
154.6944397946198,10,1,4,5,47
144.19664420340345,10,1,4,5,48
152.76792551630442,10,1,4,5,49
151.0591535652306,10,1,4,5,50
149.2656164850821,10,1,4,5,51
167.33413315920325,10,1,4,5,52
163.66795324727377,10,1,4,5,53
147.57234442093235,10,1,4,5,54
156.45927436501876,10,1,4,5,55
161.84956356225078,10,1,4,5,56
147.55050284992313,10,1,4,5,57
154.57636569623034,10,1,4,5,58
158.1895426602435,10,1,4,5,59
145.65529973019684,10,1,4,5,60
158.24623701971112,10,1,4,5,61
151.23424392080517,10,1,4,5,62
152.76792551630442,10,1,4,5,63
163.66795324727377,10,1,4,5,64
161.88360638705703,10,1,4,5,65
151.03678652191016,10,1,4,5,66
151.0591535652306,10,1,4,5,67
149.31911255299437,10,1,4,5,68
154.60887870411716,10,1,4,5,69
161.88360638705703,10,1,4,5,70
140.1540165982515,10,1,4,6,72
140.1540165982515,10,1,4,6,73
138.25634169746104,10,1,4,6,74
138.27681608423316,10,1,4,6,75
138.27681608423316,10,1,4,6,76
140.1540165982515,10,1,4,6,77
138.27681608423316,10,1,4,6,78
138.25634169746104,10,1,4,6,79
140.1540165982515,10,1,4,6,80
140.1540165982515,10,1,4,6,81
140.13326425794776,10,1,4,6,82
140.1540165982515,10,1,4,6,83
138.25634169746104,10,1,4,6,84
138.27681608423316,10,1,4,6,85
138.39978597781888,10,1,4,6,86
140.1540165982515,10,1,4,6,87
138.25634169746104,10,1,4,6,88
140.13326425794776,10,1,4,6,89
140.13326425794776,10,1,4,6,90
140.13326425794776,10,1,4,6,91
140.10380407915784,10,1,4,6,92
140.10380407915784,10,1,4,6,93
138.22727610360067,10,1,4,6,94
140.13326425794776,10,1,4,6,95
138.25634169746104,10,1,4,6,96
140.13326425794776,10,1,4,6,97
140.13326425794776,10,1,4,6,98
140.10380407915784,10,1,4,6,99
138.35020747172229,10,1,4,6,100
138.22727610360067,10,1,4,6,101
140.13326425794776,10,1,4,6,102
140.13326425794776,10,1,4,6,103
140.13326425794776,10,1,4,6,104
140.08306477355362,10,1,4,6,105
140.13326425794776,10,1,4,6,106
138.39978597781888,10,1,4,6,107
138.39978597781888,10,1,4,6,108
138.25634169746104,10,1,4,6,109
138.35020747172229,10,1,4,6,110
140.10380407915784,10,1,4,6,111
140.13326425794776,10,1,4,6,112
140.13326425794776,10,1,4,6,113
138.39978597781888,10,1,4,6,114
140.13326425794776,10,1,4,6,115
140.13326425794776,10,1,4,6,116
140.10380407915784,10,1,4,6,117
140.13326425794776,10,1,4,6,118
140.13326425794776,10,1,4,6,119
140.13326425794776,10,1,4,6,120
140.13326425794776,10,1,4,6,121
140.13326425794776,10,1,4,6,122
140.13326425794776,10,1,4,6,123
140.1540165982515,10,1,4,6,124
140.13326425794776,10,1,4,6,125
140.16273375424385,10,1,4,6,126
140.13326425794776,10,1,4,6,127
140.13326425794776,10,1,4,6,128
140.18349919165786,10,1,4,6,129
138.25634169746104,10,1,4,6,130
138.379290300063,10,1,4,6,131
138.25634169746104,10,1,4,6,132
140.13326425794776,10,1,4,6,133
138.27681608423316,10,1,4,6,134
138.25634169746104,10,1,4,6,135
140.13326425794776,10,1,4,6,136
138.39978597781888,10,1,4,6,137
140.13326425794776,10,1,4,6,138
138.25634169746104,10,1,4,6,139
140.05957318011548,10,1,4,6,140
140.13326425794776,10,1,4,6,141
140.13326425794776,10,1,4,6,142
138.25634169746104,10,1,4,6,143
140.13326425794776,10,1,4,6,144
140.13326425794776,10,1,4,6,145
138.25634169746104,10,1,4,6,146
140.13326425794776,10,1,4,6,147
140.13326425794776,10,1,4,6,148
140.13326425794776,10,1,4,6,149
138.39978597781888,10,1,4,6,150
140.13326425794776,10,1,4,6,151
138.39978597781888,10,1,4,6,152
140.13326425794776,10,1,4,6,153
138.25634169746104,10,1,4,6,154
140.13326425794776,10,1,4,6,155
140.13326425794776,10,1,4,6,156
138.25634169746104,10,1,4,6,157
140.13326425794776,10,1,4,6,158
138.39978597781888,10,1,4,6,159
141.91319368411888,10,1,4,6,160
140.13326425794776,10,1,4,6,161
138.25634169746104,10,1,4,6,162
138.39978597781888,10,1,4,6,163
140.13326425794776,10,1,4,6,164
140.13326425794776,10,1,4,6,165
138.23586726242402,10,1,4,6,166
138.25634169746104,10,1,4,6,167
140.13326425794776,10,1,4,6,168
140.13326425794776,10,1,4,6,169
138.23586726242402,10,1,4,6,170
214.0622466980924,10,1,4,7,172
203.20670860621166,10,1,4,7,173
210.47897074933152,10,1,4,7,174
213.4743749966465,10,1,4,7,175
202.1137091107632,10,1,4,7,176
211.13784668240962,10,1,4,7,177
211.85712159007568,10,1,4,7,178
211.96636249830595,10,1,4,7,179
209.70766579069078,10,1,4,7,180
214.03054613730737,10,1,4,7,181
214.0622466980924,10,1,4,7,182
212.58951939916903,10,1,4,7,183
209.70766579069078,10,1,4,7,184
203.16400116197445,10,1,4,7,185
211.9349723178215,10,1,4,7,186
211.1065791971523,10,1,4,7,187
201.1791690062408,10,1,4,7,188
202.1137091107632,10,1,4,7,189
214.03054613730737,10,1,4,7,190
211.1065791971523,10,1,4,7,191
202.1137091107632,10,1,4,7,192
201.62238585964917,10,1,4,7,193
211.9349723178215,10,1,4,7,194
210.4478008372656,10,1,4,7,195
212.5580369351385,10,1,4,7,196
202.1137091107632,10,1,4,7,197
213.44276149400875,10,1,4,7,198
209.67661010147407,10,1,4,7,199
211.9349723178215,10,1,4,7,200
211.1065791971523,10,1,4,7,201
210.4478008372656,10,1,4,7,202
207.71223469771198,10,1,4,7,203
209.67661010147407,10,1,4,7,204
197.5976481147393,10,1,4,7,205
200.61639916051055,10,1,4,7,206
212.5580369351385,10,1,4,7,207
214.03054613730737,10,1,4,7,208
213.44276149400875,10,1,4,7,209
212.58951939916903,10,1,4,7,210
212.5580369351385,10,1,4,7,211
203.66174659131391,10,1,4,7,212
212.5580369351385,10,1,4,7,213
195.45395158709692,10,1,4,7,214
214.03054613730737,10,1,4,7,215
211.90358207169538,10,1,4,7,216
210.41663086001867,10,1,4,7,217
209.80587760812625,10,1,4,7,218
215.52367531820397,10,1,4,7,219
212.5580369351385,10,1,4,7,220
213.41114792526238,10,1,4,7,221
206.8829134956395,10,1,4,7,222
203.1766111261787,10,1,4,7,223
199.0516858742795,10,1,4,7,224
210.41663086001867,10,1,4,7,225
212.5265544052733,10,1,4,7,226
209.67661010147407,10,1,4,7,227
213.9988455102316,10,1,4,7,228
208.2685722707241,10,1,4,7,229
207.4934601888696,10,1,4,7,230
213.95388322737574,10,1,4,7,231
199.0516858742795,10,1,4,7,232
211.06221145692854,10,1,4,7,233
211.8904304762934,10,1,4,7,234
209.6455543473152,10,1,4,7,235
210.37242121929955,10,1,4,7,236
212.48190145852132,10,1,4,7,237
209.6455543473152,10,1,4,7,238
212.5580369351385,10,1,4,7,239
211.07531164650993,10,1,4,7,240
211.9349723178215,10,1,4,7,241
213.9988455102316,10,1,4,7,242
210.4478008372656,10,1,4,7,243
212.5580369351385,10,1,4,7,244
208.19397322359865,10,1,4,7,245
211.07531164650993,10,1,4,7,246
210.41663086001867,10,1,4,7,247
211.9349723178215,10,1,4,7,248
210.37242121929955,10,1,4,7,249
215.44647758915434,10,1,4,7,250
211.1065791971523,10,1,4,7,251
207.50633887353143,10,1,4,7,252
207.46274070046383,10,1,4,7,253
211.07531164650993,10,1,4,7,254
211.07531164650993,10,1,4,7,255
211.0309636134936,10,1,4,7,0
212.5265544052733,10,1,4,7,1
199.00986406826982,10,1,4,7,2
212.5265544052733,10,1,4,7,3
200.0289373876229,10,1,4,7,4
213.9988455102316,10,1,4,7,5
212.5580369351385,10,1,4,7,6
209.6455543473152,10,1,4,7,7
201.5925230378249,10,1,4,7,8
211.90358207169538,10,1,4,7,9
211.07531164650993,10,1,4,7,10
212.5265544052733,10,1,4,7,11
213.9988455102316,10,1,4,7,12
208.95073438917382,10,1,4,7,13
199.0516858742795,10,1,4,7,14
134.7279672724666,10,1,4,8,16
134.7279672724666,10,1,4,8,17
134.7279672724666,10,1,4,8,18
134.7279672724666,10,1,4,8,19
134.7279672724666,10,1,4,8,20
134.7279672724666,10,1,4,8,21
134.7279672724666,10,1,4,8,22
134.7279672724666,10,1,4,8,23
133.02451264410496,10,1,4,8,24
134.7279672724666,10,1,4,8,25
134.7279672724666,10,1,4,8,26
136.4586009680889,10,1,4,8,27
134.7279672724666,10,1,4,8,28
134.7279672724666,10,1,4,8,29
134.7279672724666,10,1,4,8,30
134.7279672724666,10,1,4,8,31
134.7279672724666,10,1,4,8,32
133.02451264410496,10,1,4,8,33
134.7279672724666,10,1,4,8,34
134.70800936646683,10,1,4,8,35
134.7279672724666,10,1,4,8,36
134.7279672724666,10,1,4,8,37
134.7279672724666,10,1,4,8,38
134.67971488729023,10,1,4,8,39
134.69966021801187,10,1,4,8,40
134.70800936646683,10,1,4,8,41
134.7279672724666,10,1,4,8,42
134.7279672724666,10,1,4,8,43
134.70800936646683,10,1,4,8,44
134.7279672724666,10,1,4,8,45
134.7279672724666,10,1,4,8,46
136.4586009680889,10,1,4,8,47
134.7279672724666,10,1,4,8,48
136.4586009680889,10,1,4,8,49
134.7279672724666,10,1,4,8,50
134.7279672724666,10,1,4,8,51
134.67971488729023,10,1,4,8,52
134.67971488729023,10,1,4,8,53
134.70800936646683,10,1,4,8,54
134.7279672724666,10,1,4,8,55
134.67971488729023,10,1,4,8,56
134.70800936646683,10,1,4,8,57
134.7279672724666,10,1,4,8,58
134.70800936646683,10,1,4,8,59
134.67971488729023,10,1,4,8,60
134.67971488729023,10,1,4,8,61
134.67971488729023,10,1,4,8,62
132.82559737373393,10,1,4,8,63
134.70800936646683,10,1,4,8,64
134.69966021801187,10,1,4,8,65
134.67971488729023,10,1,4,8,66
134.67971488729023,10,1,4,8,67
134.67971488729023,10,1,4,8,68
134.70800936646683,10,1,4,8,69
134.70800936646683,10,1,4,8,70
134.67971488729023,10,1,4,8,71
134.67971488729023,10,1,4,8,72
134.70800936646683,10,1,4,8,73
134.67971488729023,10,1,4,8,74
134.67971488729023,10,1,4,8,75
134.67971488729023,10,1,4,8,76
134.67971488729023,10,1,4,8,77
134.67971488729023,10,1,4,8,78
134.70800936646683,10,1,4,8,79
134.7279672724666,10,1,4,8,80
134.70800936646683,10,1,4,8,81
134.70800936646683,10,1,4,8,82
134.70800936646683,10,1,4,8,83
136.4586009680889,10,1,4,8,84
134.70800936646683,10,1,4,8,85
134.70800936646683,10,1,4,8,86
134.70800936646683,10,1,4,8,87
134.70800936646683,10,1,4,8,88
134.70800936646683,10,1,4,8,89
133.00480707908562,10,1,4,8,90
134.7279672724666,10,1,4,8,91
134.70800936646683,10,1,4,8,92
134.70800936646683,10,1,4,8,93
134.67971488729023,10,1,4,8,94
134.70800936646683,10,1,4,8,95
134.70800936646683,10,1,4,8,96
134.70800936646683,10,1,4,8,97
134.70800936646683,10,1,4,8,98
134.70800936646683,10,1,4,8,99
134.7279672724666,10,1,4,8,100
134.7279672724666,10,1,4,8,101
134.70800936646683,10,1,4,8,102
134.70800936646683,10,1,4,8,103
134.7279672724666,10,1,4,8,104
134.70800936646683,10,1,4,8,105
134.7279672724666,10,1,4,8,106
134.70800936646683,10,1,4,8,107
134.70800936646683,10,1,4,8,108
134.70800936646683,10,1,4,8,109
134.70800936646683,10,1,4,8,110
134.7279672724666,10,1,4,8,111
134.7279672724666,10,1,4,8,112
134.70800936646683,10,1,4,8,113
134.70800936646683,10,1,4,8,114
134.70800936646683,10,1,4,8,115
134.7279672724666,10,1,4,8,116
134.70800936646683,10,1,4,8,117
134.70800936646683,10,1,4,8,118
134.70800936646683,10,1,4,8,119
132.8059212749965,10,1,4,8,120
134.70800936646683,10,1,4,8,121
134.70800936646683,10,1,4,8,122
134.70800936646683,10,1,4,8,123
134.70800936646683,10,1,4,8,124
134.70800936646683,10,1,4,8,125
134.70800936646683,10,1,4,8,126
134.70800936646683,10,1,4,8,127
134.70800936646683,10,1,4,8,128
134.70800936646683,10,1,4,8,129
134.7562832691446,10,1,4,8,130
134.70800936646683,10,1,4,8,131
134.7279672724666,10,1,4,8,132
134.70800936646683,10,1,4,8,133
134.73631277860832,10,1,4,8,134
134.70800936646683,10,1,4,8,135
134.70800936646683,10,1,4,8,136
134.70800936646683,10,1,4,8,137
134.70800936646683,10,1,4,8,138
134.70800936646683,10,1,4,8,139
134.70800936646683,10,1,4,8,140
134.70800936646683,10,1,4,8,141
134.7279672724666,10,1,4,8,142
134.70800936646683,10,1,4,8,143
134.70800936646683,10,1,4,8,144
134.70800936646683,10,1,4,8,145
134.70800936646683,10,1,4,8,146
134.70800936646683,10,1,4,8,147
134.65976952173762,10,1,4,8,148
134.68805142934025,10,1,4,8,149
134.68805142934025,10,1,4,8,150
134.68805142934025,10,1,4,8,151
134.70800936646683,10,1,4,8,152
134.68805142934025,10,1,4,8,153
134.68805142934025,10,1,4,8,154
134.68805142934025,10,1,4,8,155
134.68805142934025,10,1,4,8,156
134.70800936646683,10,1,4,8,157
134.65976952173762,10,1,4,8,158
134.70800936646683,10,1,4,8,159
134.68805142934025,10,1,4,8,160
134.68805142934025,10,1,4,8,161
134.65976952173762,10,1,4,8,162
134.65976952173762,10,1,4,8,163
134.65976952173762,10,1,4,8,164
134.65976952173762,10,1,4,8,165
134.65976952173762,10,1,4,8,166
134.65976952173762,10,1,4,8,167
134.68805142934025,10,1,4,8,168
134.68805142934025,10,1,4,8,169
134.70800936646683,10,1,4,8,170
134.68805142934025,10,1,4,8,171
134.68805142934025,10,1,4,8,172
134.68805142934025,10,1,4,8,173
134.70800936646683,10,1,4,8,174
134.68805142934025,10,1,4,8,175
136.43838669494193,10,1,4,8,176
134.68805142934025,10,1,4,8,177
134.68805142934025,10,1,4,8,178
134.68805142934025,10,1,4,8,179
134.68805142934025,10,1,4,8,180
134.65976952173762,10,1,4,8,181
134.68805142934025,10,1,4,8,182
134.68805142934025,10,1,4,8,183
134.70800936646683,10,1,4,8,184
134.70800936646683,10,1,4,8,185
134.70800936646683,10,1,4,8,186
134.68805142934025,10,1,4,8,187
134.68805142934025,10,1,4,8,188
134.68805142934025,10,1,4,8,189
134.68805142934025,10,1,4,8,190
134.68805142934025,10,1,4,8,191
134.68805142934025,10,1,4,8,192
134.68805142934025,10,1,4,8,193
134.68805142934025,10,1,4,8,194
134.68805142934025,10,1,4,8,195
134.68805142934025,10,1,4,8,196
134.65976952173762,10,1,4,8,197
134.68805142934025,10,1,4,8,198
134.68805142934025,10,1,4,8,199
134.65976952173762,10,1,4,8,200
134.68805142934025,10,1,4,8,201
134.68805142934025,10,1,4,8,202
134.65976952173762,10,1,4,8,203
134.65976952173762,10,1,4,8,204
134.68805142934025,10,1,4,8,205
134.63982412664708,10,1,4,8,206
134.63982412664708,10,1,4,8,207
134.68805142934025,10,1,4,8,208
134.68805142934025,10,1,4,8,209
134.68805142934025,10,1,4,8,210
134.68805142934025,10,1,4,8,211
134.6680934663827,10,1,4,8,212
134.68805142934025,10,1,4,8,213
134.6680934663827,10,1,4,8,214
131.00132178566196,10,1,5,2,216
143.34430219653277,10,1,5,2,217
131.00132178566196,10,1,5,2,218
137.99225214600747,10,1,5,2,219
137.96334914021773,10,1,5,2,220
139.7206260031716,10,1,5,2,221
134.3710436874745,10,1,5,2,222
138.01265799964992,10,1,5,2,223
139.92942793561627,10,1,5,2,224
141.49528405913276,10,1,5,2,225
131.02069384284457,10,1,5,2,226
138.01265799964992,10,1,5,2,227
139.64712214449364,10,1,5,2,228
131.02069384284457,10,1,5,2,229
131.02069384284457,10,1,5,2,230
131.02069384284457,10,1,5,2,231
141.49528405913276,10,1,5,2,232
139.64712214449364,10,1,5,2,233
141.49528405913276,10,1,5,2,234
137.8696149575877,10,1,5,2,235
131.02069384284457,10,1,5,2,236
134.3909140483725,10,1,5,2,237
131.02069384284457,10,1,5,2,238
139.64712214449364,10,1,5,2,239
148.70257734296942,10,1,5,2,240
139.64712214449364,10,1,5,2,241
141.47436328201374,10,1,5,2,242
150.4954096174678,10,1,5,2,243
131.02069384284457,10,1,5,2,244
131.02069384284457,10,1,5,2,245
143.27371619451094,10,1,5,2,246
157.7471719833203,10,1,5,2,247
131.00132178566196,10,1,5,2,248
130.97388305701492,10,1,5,2,249
137.99225214600747,10,1,5,2,250
139.92942793561627,10,1,5,2,251
139.64712214449364,10,1,5,2,252
136.31036081858412,10,1,5,2,253
131.02069384284457,10,1,5,2,254
145.05423505552665,10,1,5,2,255
146.86954702924643,10,1,5,2,0
130.97388305701492,10,1,5,2,1
141.47436328201374,10,1,5,2,2
152.44759521691023,10,1,5,2,3
141.44473093470845,10,1,5,2,4
143.22252767575796,10,1,5,2,5
150.47316744833233,10,1,5,2,6
145.0238528903657,10,1,5,2,7
163.5482479895926,10,1,5,2,8
137.96334914021773,10,1,5,2,9
135.9719468687144,10,1,5,2,10
139.5972293273004,10,1,5,2,11
145.0756852126531,10,1,5,2,12
131.00132178566196,10,1,5,2,13
148.69365722823792,10,1,5,2,14
146.84784073724606,10,1,5,2,15
136.09709255935562,10,1,5,2,16
143.3654994942478,10,1,5,2,17
136.09709255935562,10,1,5,2,18
143.25253246741045,10,1,5,2,19
136.29020665799385,10,1,5,2,20
131.00132178566196,10,1,5,2,21
131.00132178566196,10,1,5,2,22
146.84784073724603,10,1,5,2,23
141.44473093470845,10,1,5,2,24
143.25253246741048,10,1,5,2,25
137.99225214600747,10,1,5,2,26
136.09709255935562,10,1,5,2,27
137.96334914021773,10,1,5,2,28
139.7206260031716,10,1,5,2,29
146.84784073724603,10,1,5,2,30
136.09709255935562,10,1,5,2,31
137.96334914021773,10,1,5,2,32
130.97388305701492,10,1,5,2,33
145.09955742346767,10,1,5,2,34
143.25253246741045,10,1,5,2,35
141.49528405913276,10,1,5,2,36
137.77266024584742,10,1,5,2,37
134.3710436874745,10,1,5,2,38
148.64944921262486,10,1,5,2,39
134.34289915766743,10,1,5,2,40
131.00132178566196,10,1,5,2,41
137.849230253566,10,1,5,2,42
132.6721018796143,10,1,5,2,43
145.0238528903657,10,1,5,2,44
146.84784073724606,10,1,5,2,45
145.05423505552665,10,1,5,2,46
145.09955742346767,10,1,5,2,47
130.95452314855797,10,1,5,2,48
139.7206260031716,10,1,5,2,49
161.81337368215844,10,1,5,2,50
141.44473093470845,10,1,5,2,51
131.00132178566196,10,1,5,2,52
154.13079013004304,10,1,5,2,53
134.3710436874745,10,1,5,2,54
139.62647462724868,10,1,5,2,55
130.97388305701492,10,1,5,2,56
161.6272957012833,10,1,5,2,57
136.29020665799385,10,1,5,2,58
139.69136098285696,10,1,5,3,60
139.7206260031716,10,1,5,3,61
139.69136098285696,10,1,5,3,62
139.69136098285696,10,1,5,3,63
139.69136098285696,10,1,5,3,64
139.7206260031716,10,1,5,3,65
139.7206260031716,10,1,5,3,66
139.67071250013865,10,1,5,3,67
139.69136098285696,10,1,5,3,68
139.7206260031716,10,1,5,3,69
139.7206260031716,10,1,5,3,70
139.7206260031716,10,1,5,3,71
139.7206260031716,10,1,5,3,72
139.7206260031716,10,1,5,3,73
139.7206260031716,10,1,5,3,74
139.7206260031716,10,1,5,3,75
139.7206260031716,10,1,5,3,76
139.7206260031716,10,1,5,3,77
137.99225214600747,10,1,5,3,78
139.67071250013865,10,1,5,3,79
139.69136098285696,10,1,5,3,80
139.7206260031716,10,1,5,3,81
139.7206260031716,10,1,5,3,82
139.7206260031716,10,1,5,3,83
139.7206260031716,10,1,5,3,84
139.7412874432214,10,1,5,3,85
139.7206260031716,10,1,5,3,86
139.7206260031716,10,1,5,3,87
139.7206260031716,10,1,5,3,88
139.7206260031716,10,1,5,3,89
139.7206260031716,10,1,5,3,90
139.7206260031716,10,1,5,3,91
139.7206260031716,10,1,5,3,92
139.7206260031716,10,1,5,3,93
139.69996454222434,10,1,5,3,94
139.69136098285696,10,1,5,3,95
139.7206260031716,10,1,5,3,96
139.7206260031716,10,1,5,3,97
139.7206260031716,10,1,5,3,98
139.7206260031716,10,1,5,3,99
138.02116424574126,10,1,5,3,100
137.9718462717261,10,1,5,3,101
137.99225214600747,10,1,5,3,102
139.7206260031716,10,1,5,3,103
139.7206260031716,10,1,5,3,104
139.7206260031716,10,1,5,3,105
139.7206260031716,10,1,5,3,106
139.7206260031716,10,1,5,3,107
139.7206260031716,10,1,5,3,108
139.7206260031716,10,1,5,3,109
139.7206260031716,10,1,5,3,110
139.7206260031716,10,1,5,3,111
139.7206260031716,10,1,5,3,112
139.7206260031716,10,1,5,3,113
139.7206260031716,10,1,5,3,114
139.7206260031716,10,1,5,3,115
139.7206260031716,10,1,5,3,116
139.7206260031716,10,1,5,3,117
139.7206260031716,10,1,5,3,118
139.7206260031716,10,1,5,3,119
139.7206260031716,10,1,5,3,120
139.7206260031716,10,1,5,3,121
139.7206260031716,10,1,5,3,122
139.69996454222434,10,1,5,3,123
139.7206260031716,10,1,5,3,124
139.69996454222434,10,1,5,3,125
139.7206260031716,10,1,5,3,126
139.69996454222434,10,1,5,3,127
139.69996454222434,10,1,5,3,128
139.69996454222434,10,1,5,3,129
139.7206260031716,10,1,5,3,130
137.9718462717261,10,1,5,3,131
139.7206260031716,10,1,5,3,132
139.69996454222434,10,1,5,3,133
139.69996454222434,10,1,5,3,134
139.67071250013865,10,1,5,3,135
139.69996454222434,10,1,5,3,136
137.92256300798707,10,1,5,3,137
139.67071250013865,10,1,5,3,138
139.69996454222434,10,1,5,3,139
139.69996454222434,10,1,5,3,140
139.69996454222434,10,1,5,3,141
139.67071250013865,10,1,5,3,142
139.69996454222434,10,1,5,3,143
139.67071250013865,10,1,5,3,144
139.65006399814303,10,1,5,3,145
139.67071250013865,10,1,5,3,146
139.69996454222434,10,1,5,3,147
139.67071250013865,10,1,5,3,148
139.69996454222434,10,1,5,3,149
139.69996454222434,10,1,5,3,150
139.69996454222434,10,1,5,3,151
139.69996454222434,10,1,5,3,152
139.65006399814303,10,1,5,3,153
137.9718462717261,10,1,5,3,154
139.67071250013865,10,1,5,3,155
137.9718462717261,10,1,5,3,156
139.69996454222434,10,1,5,3,157
139.69996454222434,10,1,5,3,158
147.1251987181984,10,1,5,4,160
147.1251987181984,10,1,5,4,161
147.1251987181984,10,1,5,4,162
147.1251987181984,10,1,5,4,163
147.1469583625736,10,1,5,4,164
147.1469583625736,10,1,5,4,165
147.1251987181984,10,1,5,4,166
147.1469583625736,10,1,5,4,167
147.1251987181984,10,1,5,4,168
147.1251987181984,10,1,5,4,169
147.1251987181984,10,1,5,4,170
147.1251987181984,10,1,5,4,171
147.1251987181984,10,1,5,4,172
147.1251987181984,10,1,5,4,173
147.1251987181984,10,1,5,4,174
147.1469583625736,10,1,5,4,175
147.1251987181984,10,1,5,4,176
147.17778855390353,10,1,5,4,177
147.1251987181984,10,1,5,4,178
147.1251987181984,10,1,5,4,179
147.1251987181984,10,1,5,4,180
147.1251987181984,10,1,5,4,181
147.1251987181984,10,1,5,4,182
147.1251987181984,10,1,5,4,183
147.10343905755127,10,1,5,4,184
147.1251987181984,10,1,5,4,185
147.1251987181984,10,1,5,4,186
147.1251987181984,10,1,5,4,187
147.1251987181984,10,1,5,4,188
147.1251987181984,10,1,5,4,189
147.1251987181984,10,1,5,4,190
147.1251987181984,10,1,5,4,191
147.1251987181984,10,1,5,4,192
152.4569844298625,10,1,5,4,193
147.1251987181984,10,1,5,4,194
147.10343905755127,10,1,5,4,195
147.1251987181984,10,1,5,4,196
147.1251987181984,10,1,5,4,197
147.1251987181984,10,1,5,4,198
147.1251987181984,10,1,5,4,199
147.1251987181984,10,1,5,4,200
147.1251987181984,10,1,5,4,201
147.1251987181984,10,1,5,4,202
147.1251987181984,10,1,5,4,203
147.1251987181984,10,1,5,4,204
147.10343905755127,10,1,5,4,205
147.10343905755127,10,1,5,4,206
147.1251987181984,10,1,5,4,207
147.1251987181984,10,1,5,4,208
145.47058113577816,10,1,5,4,209
147.1251987181984,10,1,5,4,210
147.1251987181984,10,1,5,4,211
147.1251987181984,10,1,5,4,212
147.1251987181984,10,1,5,4,213
147.1251987181984,10,1,5,4,214
147.1251987181984,10,1,5,4,215
147.1251987181984,10,1,5,4,216
147.1251987181984,10,1,5,4,217
152.4569844298625,10,1,5,4,218
145.4401175758214,10,1,5,4,219
147.15601523146177,10,1,5,4,220
147.1251987181984,10,1,5,4,221
147.1251987181984,10,1,5,4,222
147.15601523146177,10,1,5,4,223
147.15601523146177,10,1,5,4,224
147.15601523146177,10,1,5,4,225
147.15601523146177,10,1,5,4,226
147.1251987181984,10,1,5,4,227
147.15601523146177,10,1,5,4,228
147.15601523146177,10,1,5,4,229
147.15601523146177,10,1,5,4,230
147.13424189678537,10,1,5,4,231
147.1251987181984,10,1,5,4,232
147.15601523146177,10,1,5,4,233
147.1251987181984,10,1,5,4,234
147.1251987181984,10,1,5,4,235
147.15601523146177,10,1,5,4,236
147.1251987181984,10,1,5,4,237
147.10343905755127,10,1,5,4,238
147.1251987181984,10,1,5,4,239
147.1251987181984,10,1,5,4,240
147.10343905755127,10,1,5,4,241
147.1251987181984,10,1,5,4,242
147.1251987181984,10,1,5,4,243
147.10343905755127,10,1,5,4,244
147.10343905755127,10,1,5,4,245
147.10343905755127,10,1,5,4,246
147.10343905755127,10,1,5,4,247
145.41860713688575,10,1,5,4,248
147.10343905755127,10,1,5,4,249
147.10343905755127,10,1,5,4,250
147.1251987181984,10,1,5,4,251
147.10343905755127,10,1,5,4,252
147.1251987181984,10,1,5,4,253
147.10343905755127,10,1,5,4,254
147.10343905755127,10,1,5,4,255
147.1251987181984,10,1,5,4,0
147.10343905755127,10,1,5,4,1
147.10343905755127,10,1,5,4,2
328.333410618006,10,1,5,5,4
324.8727253179845,10,1,5,5,5
330.1288356768628,10,1,5,5,6
328.3819779638132,10,1,5,5,7
326.505006623034,10,1,5,5,8
328.31321743498233,10,1,5,5,9
330.08000997265486,10,1,5,5,10
330.08000997265486,10,1,5,5,11
326.505006623034,10,1,5,5,12
330.2193388340355,10,1,5,5,13
328.3819779638132,10,1,5,5,14
330.26818514788226,10,1,5,5,15
331.9560154530769,10,1,5,5,16
328.2646805871061,10,1,5,5,17
330.2193388340355,10,1,5,5,18
330.08000997265486,10,1,5,5,19
330.2193388340355,10,1,5,5,20
328.424721881561,10,1,5,5,21
331.8372193087074,10,1,5,5,22
332.00511865754504,10,1,5,5,23
330.26818514788226,10,1,5,5,24
328.6934692976071,10,1,5,5,25
328.4934854209184,10,1,5,5,26
332.1634708366591,10,1,5,5,27
328.333410618006,10,1,5,5,28
331.88652710232833,10,1,5,5,29
330.1502140217934,10,1,5,5,30
330.2193388340355,10,1,5,5,31
328.333410618006,10,1,5,5,32
332.00511865754504,10,1,5,5,33
330.3373623792251,10,1,5,5,34
331.9560154530769,10,1,5,5,35
330.08000997265486,10,1,5,5,36
326.7786266992841,10,1,5,5,37
328.333410618006,10,1,5,5,38
330.1288356768628,10,1,5,5,39
328.3819779638132,10,1,5,5,40
326.5975914670034,10,1,5,5,41
328.4934854209184,10,1,5,5,42
330.3292273148339,10,1,5,5,43
326.5975914670034,10,1,5,5,44
330.08000997265486,10,1,5,5,45
330.08000997265486,10,1,5,5,46
330.0109143261225,10,1,5,5,47
331.9560154530769,10,1,5,5,48
330.08000997265486,10,1,5,5,49
330.2193388340355,10,1,5,5,50
330.08000997265486,10,1,5,5,51
330.08000997265486,10,1,5,5,52
328.4934854209184,10,1,5,5,53
331.9560154530769,10,1,5,5,54
328.333410618006,10,1,5,5,55
326.5975914670034,10,1,5,5,56
328.4934854209184,10,1,5,5,57
326.5975914670034,10,1,5,5,58
331.9560154530769,10,1,5,5,59
328.28484324867014,10,1,5,5,60
328.333410618006,10,1,5,5,61
330.2193388340355,10,1,5,5,62
328.333410618006,10,1,5,5,63
328.333410618006,10,1,5,5,64
328.21614370669954,10,1,5,5,65
328.333410618006,10,1,5,5,66
326.6619150915259,10,1,5,5,67
331.8374546993952,10,1,5,5,68
328.37616133761213,10,1,5,5,69
326.3401202442109,10,1,5,5,70
330.101398348339,10,1,5,5,71
326.48094451743054,10,1,5,5,72
328.333410618006,10,1,5,5,73
324.75669441819264,10,1,5,5,74
331.9560154530769,10,1,5,5,75
326.48094451743054,10,1,5,5,76
326.5975914670034,10,1,5,5,77
328.28484324867014,10,1,5,5,78
326.73028931496464,10,1,5,5,79
328.424721881561,10,1,5,5,80
330.1704924965252,10,1,5,5,81
326.7786266992841,10,1,5,5,82
328.333410618006,10,1,5,5,83
328.4934854209184,10,1,5,5,84
331.9069122248206,10,1,5,5,85
328.28484324867014,10,1,5,5,86
328.4934854209184,10,1,5,5,87
330.0311842447932,10,1,5,5,88
331.9069122248206,10,1,5,5,89
331.8374546993952,10,1,5,5,90
328.37616133761213,10,1,5,5,91
328.09607926772054,10,1,5,5,92
326.7786266992841,10,1,5,5,93
330.08000997265486,10,1,5,5,94
328.16475367877626,10,1,5,5,95
330.0311842447932,10,1,5,5,96
329.9621192493788,10,1,5,5,97
330.101398348339,10,1,5,5,98
326.48094451743054,10,1,5,5,99
328.2133032817284,10,1,5,5,100
330.0311842447932,10,1,5,5,101
326.48094451743054,10,1,5,5,102
143.28071019709776,10,1,5,6,104
145.03518673811564,10,1,5,6,105
143.25951284713037,10,1,5,6,106
141.55089978037824,10,1,5,6,107
143.25951284713037,10,1,5,6,108
143.25951284713037,10,1,5,6,109
143.25951284713037,10,1,5,6,110
143.25951284713037,10,1,5,6,111
143.25951284713037,10,1,5,6,112
141.52995834341357,10,1,5,6,113
143.28071019709776,10,1,5,6,114
143.28071019709776,10,1,5,6,115
141.55089978037824,10,1,5,6,116
143.25951284713037,10,1,5,6,117
143.28071019709776,10,1,5,6,118
143.28071019709776,10,1,5,6,119
143.28071019709776,10,1,5,6,120
143.28071019709776,10,1,5,6,121
143.25951284713037,10,1,5,6,122
143.25951284713037,10,1,5,6,123
143.28071019709776,10,1,5,6,124
143.25951284713037,10,1,5,6,125
143.28071019709776,10,1,5,6,126
143.28071019709776,10,1,5,6,127
143.28071019709776,10,1,5,6,128
141.52995834341357,10,1,5,6,129
143.28071019709776,10,1,5,6,130
143.28071019709776,10,1,5,6,131
143.25951284713037,10,1,5,6,132
143.28071019709776,10,1,5,6,133
143.28071019709776,10,1,5,6,134
143.28071019709776,10,1,5,6,135
143.25951284713037,10,1,5,6,136
143.25951284713037,10,1,5,6,137
143.25951284713037,10,1,5,6,138
143.28071019709776,10,1,5,6,139
143.25951284713037,10,1,5,6,140
143.25951284713037,10,1,5,6,141
143.25951284713037,10,1,5,6,142
143.25951284713037,10,1,5,6,143
143.25951284713037,10,1,5,6,144
143.25951284713037,10,1,5,6,145
143.25951284713037,10,1,5,6,146
143.25951284713037,10,1,5,6,147
143.25951284713037,10,1,5,6,148
143.25951284713037,10,1,5,6,149
143.25951284713037,10,1,5,6,150
143.25951284713037,10,1,5,6,151
143.25951284713037,10,1,5,6,152
143.25951284713037,10,1,5,6,153
143.25951284713037,10,1,5,6,154
143.22954206967478,10,1,5,6,155
143.25951284713037,10,1,5,6,156
143.25951284713037,10,1,5,6,157
143.25951284713037,10,1,5,6,158
143.20835801968568,10,1,5,6,159
143.20835801968568,10,1,5,6,160
143.22954206967478,10,1,5,6,161
143.25951284713037,10,1,5,6,162
143.25951284713037,10,1,5,6,163
143.25951284713037,10,1,5,6,164
143.25951284713037,10,1,5,6,165
143.20835801968568,10,1,5,6,166
143.25951284713037,10,1,5,6,167
143.25951284713037,10,1,5,6,168
143.22954206967478,10,1,5,6,169
141.52995834341357,10,1,5,6,170
143.25951284713037,10,1,5,6,171
143.25951284713037,10,1,5,6,172
143.25951284713037,10,1,5,6,173
143.25951284713037,10,1,5,6,174
143.25951284713037,10,1,5,6,175
143.25951284713037,10,1,5,6,176
143.25951284713037,10,1,5,6,177
143.25951284713037,10,1,5,6,178
143.25951284713037,10,1,5,6,179
143.25951284713037,10,1,5,6,180
143.20835801968568,10,1,5,6,181
145.03518673811564,10,1,5,6,182
143.25951284713037,10,1,5,6,183
143.25951284713037,10,1,5,6,184
143.31070369495703,10,1,5,6,185
143.25951284713037,10,1,5,6,186
143.25951284713037,10,1,5,6,187
143.28071019709776,10,1,5,6,188
143.25951284713037,10,1,5,6,189
143.25951284713037,10,1,5,6,190
143.25951284713037,10,1,5,6,191
143.25951284713037,10,1,5,6,192
143.25951284713037,10,1,5,6,193
143.25951284713037,10,1,5,6,194
143.25951284713037,10,1,5,6,195
143.25951284713037,10,1,5,6,196
141.52995834341357,10,1,5,6,197
143.25951284713037,10,1,5,6,198
143.25951284713037,10,1,5,6,199
143.25951284713037,10,1,5,6,200
143.25951284713037,10,1,5,6,201
143.25951284713037,10,1,5,6,202
206.11852916931002,10,1,5,7,204
214.79374169572796,10,1,5,7,205
211.10833807263498,10,1,5,7,206
203.48903142815163,10,1,5,7,207
214.79374169572796,10,1,5,7,208
218.37186215950967,10,1,5,7,209
201.39938783228013,10,1,5,7,210
199.87776539680974,10,1,5,7,211
215.78516135844933,10,1,5,7,212
213.95125987588395,10,1,5,7,213
217.8298462217878,10,1,5,7,214
214.76195980680188,10,1,5,7,215
212.48765629182583,10,1,5,7,216
215.4043861167233,10,1,5,7,217
204.504990429228,10,1,5,7,218
210.36047482743012,10,1,5,7,219
214.76195980680188,10,1,5,7,220
213.27410772437688,10,1,5,7,221
199.90734462464107,10,1,5,7,222
216.2699349241701,10,1,5,7,223
215.37251387398618,10,1,5,7,224
209.71940101227221,10,1,5,7,225
216.30193997318338,10,1,5,7,226
213.27410772437688,10,1,5,7,227
201.39938783228013,10,1,5,7,228
202.48852438938357,10,1,5,7,229
213.27410772437688,10,1,5,7,230
216.30193997318338,10,1,5,7,231
213.95125987588395,10,1,5,7,232
214.76195980680188,10,1,5,7,233
213.3056694311549,10,1,5,7,234
213.9196026445173,10,1,5,7,235
213.27410772437688,10,1,5,7,236
213.27410772437688,10,1,5,7,237
216.2699349241701,10,1,5,7,238
216.2699349241701,10,1,5,7,239
217.7976150966035,10,1,5,7,240
213.27410772437688,10,1,5,7,241
215.7081092138829,10,1,5,7,242
201.39938783228013,10,1,5,7,243
214.76195980680188,10,1,5,7,244
213.9196026445173,10,1,5,7,245
214.17927291455226,10,1,5,7,246
213.27410772437688,10,1,5,7,247
204.504990429228,10,1,5,7,248
214.76195980680188,10,1,5,7,249
214.76195980680188,10,1,5,7,250
214.76195980680188,10,1,5,7,251
212.48765629182583,10,1,5,7,252
216.2699349241701,10,1,5,7,253
213.27410772437688,10,1,5,7,254
211.80680274442778,10,1,5,7,255
211.7625045572655,10,1,5,7,0
216.2699349241701,10,1,5,7,1
209.68836994658105,10,1,5,7,2
216.30193997318338,10,1,5,7,3
212.68840046157723,10,1,5,7,4
211.07710149330535,10,1,5,7,5
213.27410772437688,10,1,5,7,6
214.76195980680188,10,1,5,7,7
204.504990429228,10,1,5,7,8
202.9419541544561,10,1,5,7,9
210.36047482743012,10,1,5,7,10
211.80680274442778,10,1,5,7,11
210.36047482743012,10,1,5,7,12
206.08803090549682,10,1,5,7,13
215.37251387398618,10,1,5,7,14
214.76195980680188,10,1,5,7,15
216.2699349241701,10,1,5,7,16
213.27410772437688,10,1,5,7,17
201.39938783228013,10,1,5,7,18
214.76195980680188,10,1,5,7,19
214.76195980680188,10,1,5,7,20
214.76195980680188,10,1,5,7,21
214.21097325522476,10,1,5,7,22
213.27410772437688,10,1,5,7,23
204.087206559932,10,1,5,7,24
213.27410772437688,10,1,5,7,25
217.31475987584153,10,1,5,7,26
213.9196026445173,10,1,5,7,27
217.7976150966035,10,1,5,7,28
201.95281805091966,10,1,5,7,29
212.48765629182583,10,1,5,7,30
204.504990429228,10,1,5,7,31
217.31475987584153,10,1,5,7,32
213.27410772437688,10,1,5,7,33
217.31475987584153,10,1,5,7,34
213.9196026445173,10,1,5,7,35
215.37251387398618,10,1,5,7,36
201.95281805091966,10,1,5,7,37
214.7301779275363,10,1,5,7,38
214.7301779275363,10,1,5,7,39
213.27410772437688,10,1,5,7,40
216.81387828956557,10,1,5,7,41
214.7301779275363,10,1,5,7,42
216.2379298848851,10,1,5,7,43
217.7976150966035,10,1,5,7,44
213.27410772437688,10,1,5,7,45
211.80680274442778,10,1,5,7,46
134.25182128319196,10,1,5,8,48
135.9964643425821,10,1,5,8,49
135.9964643425821,10,1,5,8,50
134.2716916862084,10,1,5,8,51
134.2716916862084,10,1,5,8,52
134.2716916862084,10,1,5,8,53
134.2716916862084,10,1,5,8,54
134.2716916862084,10,1,5,8,55
135.9964643425821,10,1,5,8,56
135.97633869642868,10,1,5,8,57
134.25182128319196,10,1,5,8,58
135.97633869642868,10,1,5,8,59
134.25182128319196,10,1,5,8,60
134.2716916862084,10,1,5,8,61
134.2716916862084,10,1,5,8,62
135.97633869642868,10,1,5,8,63
134.2716916862084,10,1,5,8,64
134.25182128319196,10,1,5,8,65
135.9964643425821,10,1,5,8,66
135.9964643425821,10,1,5,8,67
136.0249161517317,10,1,5,8,68
134.2716916862084,10,1,5,8,69
136.0249161517317,10,1,5,8,70
134.2716916862084,10,1,5,8,71
134.25182128319196,10,1,5,8,72
135.9964643425821,10,1,5,8,73
134.29978265581207,10,1,5,8,74
136.0249161517317,10,1,5,8,75
134.2716916862084,10,1,5,8,76
136.00477787335169,10,1,5,8,77
136.0249161517317,10,1,5,8,78
135.9964643425821,10,1,5,8,79
135.97633869642868,10,1,5,8,80
135.9964643425821,10,1,5,8,81
135.97633869642868,10,1,5,8,82
134.2716916862084,10,1,5,8,83
137.89022267571616,10,1,5,8,84
135.97633869642868,10,1,5,8,85
135.97633869642868,10,1,5,8,86
134.25182128319196,10,1,5,8,87
135.97633869642868,10,1,5,8,88
134.25182128319196,10,1,5,8,89
135.97633869642868,10,1,5,8,90
134.25182128319196,10,1,5,8,91
134.25182128319196,10,1,5,8,92
134.25182128319196,10,1,5,8,93
134.25182128319196,10,1,5,8,94
135.97633869642868,10,1,5,8,95
135.97633869642868,10,1,5,8,96
135.97633869642868,10,1,5,8,97
134.25182128319196,10,1,5,8,98
134.25182128319196,10,1,5,8,99
134.25182128319196,10,1,5,8,100
134.25182128319196,10,1,5,8,101
135.97633869642868,10,1,5,8,102
135.97633869642868,10,1,5,8,103
134.25182128319196,10,1,5,8,104
135.97633869642868,10,1,5,8,105
134.25182128319196,10,1,5,8,106
135.97633869642868,10,1,5,8,107
135.97633869642868,10,1,5,8,108
135.97633869642868,10,1,5,8,109
135.97633869642868,10,1,5,8,110
134.25182128319196,10,1,5,8,111
134.25182128319196,10,1,5,8,112
134.25182128319196,10,1,5,8,113
135.97633869642868,10,1,5,8,114
134.25182128319196,10,1,5,8,115
135.97633869642868,10,1,5,8,116
134.25182128319196,10,1,5,8,117
135.97633869642868,10,1,5,8,118
135.97633869642868,10,1,5,8,119
134.23195089142652,10,1,5,8,120
135.97633869642868,10,1,5,8,121
134.25182128319196,10,1,5,8,122
134.25182128319196,10,1,5,8,123
135.95621306167075,10,1,5,8,124
134.23195089142652,10,1,5,8,125
135.97633869642868,10,1,5,8,126
134.25182128319196,10,1,5,8,127
135.95621306167075,10,1,5,8,128
134.20389365349678,10,1,5,8,129
135.9277954174917,10,1,5,8,130
135.95621306167075,10,1,5,8,131
135.95621306167075,10,1,5,8,132
136.12066929303373,10,1,5,8,133
134.23195089142652,10,1,5,8,134
134.23195089142652,10,1,5,8,135
134.23195089142652,10,1,5,8,136
134.23195089142652,10,1,5,8,137
135.97633869642868,10,1,5,8,138
134.23195089142652,10,1,5,8,139
135.95621306167075,10,1,5,8,140
134.23195089142652,10,1,5,8,141
134.20389365349678,10,1,5,8,142
135.95621306167075,10,1,5,8,143
135.95621306167075,10,1,5,8,144
134.23195089142652,10,1,5,8,145
134.20389365349678,10,1,5,8,146
134.23195089142652,10,1,5,8,147
135.95621306167075,10,1,5,8,148
135.95621306167075,10,1,5,8,149
135.9277954174917,10,1,5,8,150
134.23195089142652,10,1,5,8,151
134.23195089142652,10,1,5,8,152
134.23195089142652,10,1,5,8,153
134.23195089142652,10,1,5,8,154
135.9277954174917,10,1,5,8,155
135.95621306167075,10,1,5,8,156
135.95621306167075,10,1,5,8,157
135.9277954174917,10,1,5,8,158
135.9277954174917,10,1,5,8,159
135.95621306167075,10,1,5,8,160
135.95621306167075,10,1,5,8,161
135.95621306167075,10,1,5,8,162
134.23195089142652,10,1,5,8,163
134.23195089142652,10,1,5,8,164
135.95621306167075,10,1,5,8,165
134.20389365349678,10,1,5,8,166
135.95621306167075,10,1,5,8,167
135.95621306167075,10,1,5,8,168
134.23195089142652,10,1,5,8,169
135.95621306167075,10,1,5,8,170
135.95621306167075,10,1,5,8,171
135.95621306167075,10,1,5,8,172
135.95621306167075,10,1,5,8,173
134.23195089142652,10,1,5,8,174
135.9277954174917,10,1,5,8,175
135.95621306167075,10,1,5,8,176
135.95621306167075,10,1,5,8,177
135.95621306167075,10,1,5,8,178
134.23195089142652,10,1,5,8,179
135.95621306167075,10,1,5,8,180
135.95621306167075,10,1,5,8,181
135.90768241490167,10,1,5,8,182
135.90768241490167,10,1,5,8,183
134.23195089142652,10,1,5,8,184
134.23195089142652,10,1,5,8,185
135.95621306167075,10,1,5,8,186
134.23195089142652,10,1,5,8,187
134.23195089142652,10,1,5,8,188
135.97633869642868,10,1,5,8,189
135.95621306167075,10,1,5,8,190
135.95621306167075,10,1,5,8,191
135.9846396101151,10,1,5,8,192
134.23195089142652,10,1,5,8,193
134.23195089142652,10,1,5,8,194
135.95621306167075,10,1,5,8,195
134.23195089142652,10,1,5,8,196
135.95621306167075,10,1,5,8,197
135.95621306167075,10,1,5,8,198
135.97633869642868,10,1,5,8,199
135.95621306167075,10,1,5,8,200
134.23195089142652,10,1,5,8,201
135.95621306167075,10,1,5,8,202
134.26001692069332,10,1,5,8,203
134.23195089142652,10,1,5,8,204
135.95621306167075,10,1,5,8,205
134.23195089142652,10,1,5,8,206
135.95621306167075,10,1,5,8,207
135.95621306167075,10,1,5,8,208
135.95621306167075,10,1,5,8,209
135.95621306167075,10,1,5,8,210
135.95621306167075,10,1,5,8,211
135.95621306167075,10,1,5,8,212
134.2120805161179,10,1,5,8,213
134.2120805161179,10,1,5,8,214
134.2120805161179,10,1,5,8,215
134.23195089142652,10,1,5,8,216
134.2120805161179,10,1,5,8,217
134.2120805161179,10,1,5,8,218
134.20389365349678,10,1,5,8,219
134.23195089142652,10,1,5,8,220
135.95621306167075,10,1,5,8,221
134.2120805161179,10,1,5,8,222
135.95621306167075,10,1,5,8,223
134.2120805161179,10,1,5,8,224
134.184035733692,10,1,5,8,225
134.2120805161179,10,1,5,8,226
134.2120805161179,10,1,5,8,227
134.2120805161179,10,1,5,8,228
134.2120805161179,10,1,5,8,229
135.95621306167075,10,1,5,8,230
135.95621306167075,10,1,5,8,231
135.95621306167075,10,1,5,8,232
134.2120805161179,10,1,5,8,233
134.2120805161179,10,1,5,8,234
134.2120805161179,10,1,5,8,235
134.2120805161179,10,1,5,8,236
135.95621306167075,10,1,5,8,237
135.93608744358107,10,1,5,8,238
134.2120805161179,10,1,5,8,239
135.93608744358107,10,1,5,8,240
135.93608744358107,10,1,5,8,241
134.2120805161179,10,1,5,8,242
134.2120805161179,10,1,5,8,243
135.90768241490167,10,1,5,8,244
134.2120805161179,10,1,5,8,245
135.93608744358107,10,1,5,8,246
130.9044613079077,10,1,6,2,248
132.55438688289158,10,1,6,2,249
152.20363697481267,10,1,6,2,250
134.25182128319196,10,1,6,2,251
139.53176596065882,10,1,6,2,252
144.90408366443228,10,1,6,2,253
139.4819417262213,10,1,6,2,254
134.23195089142652,10,1,6,2,255
134.26001692069332,10,1,6,2,0
148.52668575604312,10,1,6,2,1
132.336584784495,10,1,6,2,2
141.3069967658671,10,1,6,2,3
137.6861523298644,10,1,6,2,4
143.08306234765126,10,1,6,2,5
137.6861523298644,10,1,6,2,6
136.12897308504049,10,1,6,2,7
150.41388873123083,10,1,6,2,8
135.96450136729734,10,1,6,2,9
146.7355100540445,10,1,6,2,10
135.91596184742676,10,1,6,2,11
137.66576763327686,10,1,6,2,12
134.2120805161179,10,1,6,2,13
129.18763051300382,10,1,6,2,14
130.87369509584718,10,1,6,2,15
139.49044497102625,10,1,6,2,16
132.54284744948438,10,1,6,2,17
130.87369509584718,10,1,6,2,18
143.1129701616475,10,1,6,2,19
146.73551005404454,10,1,6,2,20
139.49044497102625,10,1,6,2,21
132.5232160264734,10,1,6,2,22
137.69453457934094,10,1,6,2,23
141.31559945015766,10,1,6,2,24
130.87369509584718,10,1,6,2,25
141.33653333928325,10,1,6,2,26
134.22025126620872,10,1,6,2,27
146.71377650203445,10,1,6,2,28
134.2401340807695,10,1,6,2,29
152.1585633325336,10,1,6,2,30
137.8373959712991,10,1,6,2,31
152.14734984854033,10,1,6,2,32
134.2401340807695,10,1,6,2,33
134.22025126620872,10,1,6,2,34
129.21462584861274,10,1,6,2,35
139.5638302314219,10,1,6,2,36
134.22025126620872,10,1,6,2,37
134.19221016246644,10,1,6,2,38
146.73551005404454,10,1,6,2,39
156.13692920710324,10,1,6,2,40
148.69033211077215,10,1,6,2,41
150.42304583758286,10,1,6,2,42
130.8543108973115,10,1,6,2,43
136.13726053438873,10,1,6,2,44
139.46978451303912,10,1,6,2,45
150.42304583758286,10,1,6,2,46
129.18763051300382,10,1,6,2,47
134.22025126620872,10,1,6,2,48
150.30438554359702,10,1,6,2,49
141.31559945015766,10,1,6,2,50
135.94436315016839,10,1,6,2,51
135.94436315016839,10,1,6,2,52
137.8373959712991,10,1,6,2,53
137.8373959712991,10,1,6,2,54
135.8478117437056,10,1,6,2,55
143.2046504850555,10,1,6,2,56
143.11297016164747,10,1,6,2,57
148.5357403960447,10,1,6,2,58
148.51374020510204,10,1,6,2,59
139.46978451303912,10,1,6,2,60
141.2691675121702,10,1,6,2,61
165.06262468328435,10,1,6,2,62
157.66310805936948,10,1,6,2,63
130.8543108973115,10,1,6,2,64
139.46978451303912,10,1,6,2,65
137.64688116570431,10,1,6,2,66
156.43077501199858,10,1,6,2,67
136.13726053438873,10,1,6,2,68
139.46978451303912,10,1,6,2,69
143.1834399020258,10,1,6,2,70
132.5232160264734,10,1,6,2,71
129.21462584861274,10,1,6,2,72
129.21462584861274,10,1,6,2,73
143.09177315773766,10,1,6,2,74
135.94436315016839,10,1,6,2,75
130.8543108973115,10,1,6,2,76
137.67413713064593,10,1,6,2,77
132.50358463363665,10,1,6,2,78
148.51374020510204,10,1,6,2,79
141.2691675121702,10,1,6,2,80
134.1723398356672,10,1,6,2,81
130.83492672857014,10,1,6,2,82
130.87369509584718,10,1,6,2,83
137.8373959712991,10,1,6,2,84
150.33579348346808,10,1,6,2,85
141.31559945015766,10,1,6,2,86
143.09177315773766,10,1,6,2,87
146.71377650203445,10,1,6,2,88
141.31559945015766,10,1,6,2,89
141.2860759963778,10,1,6,2,90
135.94436315016839,10,1,6,3,92
135.8958362784696,10,1,6,3,93
135.91596184742676,10,1,6,3,94
135.8958362784696,10,1,6,3,95
135.8958362784696,10,1,6,3,96
135.92422496399269,10,1,6,3,97
135.8958362784696,10,1,6,3,98
135.94436315016839,10,1,6,3,99
135.94436315016839,10,1,6,3,100
135.92422496399269,10,1,6,3,101
135.8958362784696,10,1,6,3,102
135.92422496399269,10,1,6,3,103
137.67413713064593,10,1,6,3,104
137.69453457934094,10,1,6,3,105
135.8958362784696,10,1,6,3,106
135.94436315016839,10,1,6,3,107
135.92422496399269,10,1,6,3,108
135.94436315016839,10,1,6,3,109
135.92422496399269,10,1,6,3,110
135.94436315016839,10,1,6,3,111
135.92422496399269,10,1,6,3,112
135.94436315016839,10,1,6,3,113
135.92422496399269,10,1,6,3,114
135.92422496399269,10,1,6,3,115
135.92422496399269,10,1,6,3,116
135.92422496399269,10,1,6,3,117
135.8958362784696,10,1,6,3,118
135.92422496399269,10,1,6,3,119
135.8958362784696,10,1,6,3,120
135.92422496399269,10,1,6,3,121
135.94436315016839,10,1,6,3,122
135.92422496399269,10,1,6,3,123
135.92422496399269,10,1,6,3,124
137.8169773597604,10,1,6,3,125
135.92422496399269,10,1,6,3,126
135.92422496399269,10,1,6,3,127
135.92422496399269,10,1,6,3,128
135.8958362784696,10,1,6,3,129
135.92422496399269,10,1,6,3,130
135.92422496399269,10,1,6,3,131
137.67413713064593,10,1,6,3,132
135.8958362784696,10,1,6,3,133
135.92422496399269,10,1,6,3,134
135.94436315016839,10,1,6,3,135
137.69453457934094,10,1,6,3,136
135.92422496399269,10,1,6,3,137
135.92422496399269,10,1,6,3,138
135.94436315016839,10,1,6,3,139
135.92422496399269,10,1,6,3,140
135.94436315016839,10,1,6,3,141
135.92422496399269,10,1,6,3,142
135.92422496399269,10,1,6,3,143
135.92422496399269,10,1,6,3,144
135.92422496399269,10,1,6,3,145
135.92422496399269,10,1,6,3,146
135.94436315016839,10,1,6,3,147
135.92422496399269,10,1,6,3,148
135.92422496399269,10,1,6,3,149
135.92422496399269,10,1,6,3,150
135.92422496399269,10,1,6,3,151
135.92422496399269,10,1,6,3,152
135.92422496399269,10,1,6,3,153
135.92422496399269,10,1,6,3,154
135.92422496399269,10,1,6,3,155
135.92422496399269,10,1,6,3,156
135.92422496399269,10,1,6,3,157
135.92422496399269,10,1,6,3,158
135.92422496399269,10,1,6,3,159
135.90408681402923,10,1,6,3,160
135.8958362784696,10,1,6,3,161
135.92422496399269,10,1,6,3,162
135.92422496399269,10,1,6,3,163
135.92422496399269,10,1,6,3,164
135.92422496399269,10,1,6,3,165
135.92422496399269,10,1,6,3,166
135.92422496399269,10,1,6,3,167
135.92422496399269,10,1,6,3,168
135.92422496399269,10,1,6,3,169
135.92422496399269,10,1,6,3,170
135.92422496399269,10,1,6,3,171
137.67413713064593,10,1,6,3,172
135.92422496399269,10,1,6,3,173
135.90408681402923,10,1,6,3,174
135.92422496399269,10,1,6,3,175
135.92422496399269,10,1,6,3,176
135.92422496399269,10,1,6,3,177
137.67413713064593,10,1,6,3,178
135.87571074196583,10,1,6,3,179
135.90408681402923,10,1,6,3,180
135.92422496399269,10,1,6,3,181
135.8958362784696,10,1,6,3,182
135.92422496399269,10,1,6,3,183
135.90408681402923,10,1,6,3,184
135.92422496399269,10,1,6,3,185
135.92422496399269,10,1,6,3,186
135.92422496399269,10,1,6,3,187
135.92422496399269,10,1,6,3,188
135.90408681402923,10,1,6,3,189
135.92422496399269,10,1,6,3,190
141.4338493395742,10,1,6,4,192
139.7310296119068,10,1,6,4,193
141.4338493395742,10,1,6,4,194
141.41289489919637,10,1,6,4,195
141.4338493395742,10,1,6,4,196
141.4338493395742,10,1,6,4,197
141.4338493395742,10,1,6,4,198
141.41289489919637,10,1,6,4,199
141.4338493395742,10,1,6,4,200
141.38336861643015,10,1,6,4,201
141.41289489919637,10,1,6,4,202
139.7103274564991,10,1,6,4,203
141.4338493395742,10,1,6,4,204
141.41289489919637,10,1,6,4,205
141.38336861643015,10,1,6,4,206
141.6445296079206,10,1,6,4,207
141.41289489919637,10,1,6,4,208
141.4338493395742,10,1,6,4,209
141.4338493395742,10,1,6,4,210
141.4548038176321,10,1,6,4,211
141.4338493395742,10,1,6,4,212
141.4338493395742,10,1,6,4,213
141.4633979853894,10,1,6,4,214
141.4338493395742,10,1,6,4,215
141.4338493395742,10,1,6,4,216
141.4633979853894,10,1,6,4,217
141.4338493395742,10,1,6,4,218
141.41289489919637,10,1,6,4,219
141.4338493395742,10,1,6,4,220
141.4338493395742,10,1,6,4,221
141.4338493395742,10,1,6,4,222
141.4338493395742,10,1,6,4,223
141.41289489919637,10,1,6,4,224
141.4338493395742,10,1,6,4,225
141.41289489919637,10,1,6,4,226
139.7103274564991,10,1,6,4,227
141.4338493395742,10,1,6,4,228
141.41289489919637,10,1,6,4,229
141.4633979853894,10,1,6,4,230
141.41289489919637,10,1,6,4,231
141.4338493395742,10,1,6,4,232
141.4338493395742,10,1,6,4,233
141.41289489919637,10,1,6,4,234
141.41289489919637,10,1,6,4,235
141.41289489919637,10,1,6,4,236
141.4338493395742,10,1,6,4,237
141.4338493395742,10,1,6,4,238
141.41289489919637,10,1,6,4,239
141.41289489919637,10,1,6,4,240
141.41289489919637,10,1,6,4,241
143.1111317331822,10,1,6,4,242
141.41289489919637,10,1,6,4,243
141.41289489919637,10,1,6,4,244
143.32412223215618,10,1,6,4,245
141.36242734002514,10,1,6,4,246
141.36242734002514,10,1,6,4,247
141.38336861643015,10,1,6,4,248
141.38336861643015,10,1,6,4,249
141.41289489919637,10,1,6,4,250
143.32412223215618,10,1,6,4,251
141.38336861643015,10,1,6,4,252
143.27297259248172,10,1,6,4,253
141.36242734002514,10,1,6,4,254
141.36242734002514,10,1,6,4,255
141.36242734002514,10,1,6,4,0
141.36242734002514,10,1,6,4,1
141.36242734002514,10,1,6,4,2
141.41289489919637,10,1,6,4,3
141.39194050196505,10,1,6,4,4
141.39194050196505,10,1,6,4,5
141.39194050196505,10,1,6,4,6
143.14101883930994,10,1,6,4,7
141.41289489919637,10,1,6,4,8
141.38336861643015,10,1,6,4,9
141.39194050196505,10,1,6,4,10
141.41289489919637,10,1,6,4,11
141.41289489919637,10,1,6,4,12
141.41289489919637,10,1,6,4,13
141.41289489919637,10,1,6,4,14
141.39194050196505,10,1,6,4,15
141.41289489919637,10,1,6,4,16
141.41289489919637,10,1,6,4,17
141.41289489919637,10,1,6,4,18
141.41289489919637,10,1,6,4,19
141.41289489919637,10,1,6,4,20
141.41289489919637,10,1,6,4,21
141.36242734002514,10,1,6,4,22
141.41289489919637,10,1,6,4,23
141.39194050196505,10,1,6,4,24
141.39194050196505,10,1,6,4,25
141.39194050196505,10,1,6,4,26
141.39194050196505,10,1,6,4,27
141.41289489919637,10,1,6,4,28
141.39194050196505,10,1,6,4,29
141.39194050196505,10,1,6,4,30
141.39194050196505,10,1,6,4,31
141.41289489919637,10,1,6,4,32
141.39194050196505,10,1,6,4,33
141.39194050196505,10,1,6,4,34
146.88584281387756,10,1,6,5,36
166.67367160686695,10,1,6,5,37
153.88940341131547,10,1,6,5,38
164.7958768723214,10,1,6,5,39
152.11151362567523,10,1,6,5,40
166.55570037235768,10,1,6,5,41
148.59323050118445,10,1,6,5,42
164.71634217807866,10,1,6,5,43
155.65659557267477,10,1,6,5,44
150.30254377951596,10,1,6,5,45
152.11151362567523,10,1,6,5,46
146.7596881285958,10,1,6,5,47
157.50983521233226,10,1,6,5,48
159.3097696038576,10,1,6,5,49
172.06786913876385,10,1,6,5,50
174.09523651865535,10,1,6,5,51
150.35619698438816,10,1,6,5,52
143.3028846314959,10,1,6,5,53
152.11151362567523,10,1,6,5,54
146.70731240112158,10,1,6,5,55
143.57706131960077,10,1,6,5,56
176.05947084577835,10,1,6,5,57
175.83595047950496,10,1,6,5,58
157.5098352123323,10,1,6,5,59
159.3509083442732,10,1,6,5,60
143.57706131960077,10,1,6,5,61
153.88940341131547,10,1,6,5,62
172.06786913876385,10,1,6,5,63
162.99482334227847,10,1,6,5,64
152.2407319813796,10,1,6,5,65
163.0912857571949,10,1,6,5,66
166.5904732992917,10,1,6,5,67
157.5098352123323,10,1,6,5,68
153.974566341692,10,1,6,5,69
168.44903529656438,10,1,6,5,70
172.18422728375262,10,1,6,5,71
168.41387442643494,10,1,6,5,72
152.07976293522833,10,1,6,5,73
153.83448941472273,10,1,6,5,74
159.27651639994625,10,1,6,5,75
143.55578313509736,10,1,6,5,76
159.27651639994625,10,1,6,5,77
155.73118822159137,10,1,6,5,78
157.48649218452584,10,1,6,5,79
153.9196219555028,10,1,6,5,80
157.45362929845882,10,1,6,5,81
146.86408335114177,10,1,6,5,82
153.83448941472273,10,1,6,5,83
170.30055864981105,10,1,6,5,84
153.974566341692,10,1,6,5,85
170.3258010094628,10,1,6,5,86
155.6335368229269,10,1,6,5,87
161.18772423407003,10,1,6,5,88
146.89473604336615,10,1,6,5,89
161.07278017859204,10,1,6,5,90
146.89473604336615,10,1,6,5,91
170.26502183786977,10,1,6,5,92
148.49188788583967,10,1,6,5,93
159.29404546064453,10,1,6,5,94
161.10639843462772,10,1,6,5,95
164.80585446800885,10,1,6,5,96
162.94651863405477,10,1,6,5,97
145.00798410039837,10,1,6,5,98
175.80989151324496,10,1,6,5,99
166.53102704451166,10,1,6,5,100
170.18508758309386,10,1,6,5,101
166.53102704451166,10,1,6,5,102
164.96481843500356,10,1,6,5,103
159.28615982497183,10,1,6,5,104
157.45362929845882,10,1,6,5,105
155.67561700128758,10,1,6,5,106
164.66754054069935,10,1,6,5,107
157.48649218452584,10,1,6,5,108
161.1063984346277,10,1,6,5,109
166.52643981701598,10,1,6,5,110
166.6837628939707,10,1,6,5,111
152.05723405245064,10,1,6,5,112
162.8723059774817,10,1,6,5,113
161.07278017859204,10,1,6,5,114
157.48649218452584,10,1,6,5,115
162.91251639803693,10,1,6,5,116
153.974566341692,10,1,6,5,117
161.15408900768696,10,1,6,5,118
170.457259701784,10,1,6,5,119
152.08897063153483,10,1,6,5,120
152.08897063153483,10,1,6,5,121
152.05723405245064,10,1,6,5,122
162.8723059774817,10,1,6,5,123
166.53102704451166,10,1,6,5,124
159.2529214002043,10,1,6,5,125
153.9196219555028,10,1,6,5,126
159.2529214002043,10,1,6,5,127
146.86408335114177,10,1,6,5,128
152.0347052236172,10,1,6,5,129
164.7470516706542,10,1,6,5,130
166.53102704451166,10,1,6,5,131
152.05723405245064,10,1,6,5,132
170.23979533972118,10,1,6,5,133
152.05723405245064,10,1,6,5,134
253.7702272427458,10,1,6,6,136
262.56134346034776,10,1,6,6,137
266.08015940631844,10,1,6,6,138
259.18835287913134,10,1,6,6,139
264.4085684903023,10,1,6,6,140
269.7387593268756,10,1,6,6,141
266.119581987941,10,1,6,6,142
266.17514152003434,10,1,6,6,143
264.5324887147979,10,1,6,6,144
260.87624034591215,10,1,6,6,145
262.6161438708189,10,1,6,6,146
253.7702272427458,10,1,6,6,147
260.82180300309534,10,1,6,6,148
266.08015940631844,10,1,6,6,149
262.56134346034776,10,1,6,6,150
257.20560030271133,10,1,6,6,151
260.87624034591215,10,1,6,6,152
253.7702272427458,10,1,6,6,153
260.82180300309534,10,1,6,6,154
258.94413884132825,10,1,6,6,155
253.58948838981323,10,1,6,6,156
251.86600067902117,10,1,6,6,157
255.480869261472,10,1,6,6,158
276.9876745908227,10,1,6,6,159
257.20560030271133,10,1,6,6,160
260.82180300309534,10,1,6,6,161
257.20560030271133,10,1,6,6,162
264.3142167616758,10,1,6,6,163
255.480869261472,10,1,6,6,164
266.08015940631844,10,1,6,6,165
264.2950140259131,10,1,6,6,166
275.0970385831765,10,1,6,6,167
255.53419187293701,10,1,6,6,168
252.0739610824382,10,1,6,6,169
264.3142167616758,10,1,6,6,170
257.20560030271133,10,1,6,6,171
278.7161139566987,10,1,6,6,172
255.53419187293701,10,1,6,6,173
260.75061976736345,10,1,6,6,174
257.20560030271133,10,1,6,6,175
262.56134346034776,10,1,6,6,176
262.6161438708189,10,1,6,6,177
255.480869261472,10,1,6,6,178
271.6070196121713,10,1,6,6,179
260.82180300309534,10,1,6,6,180
257.25928289088796,10,1,6,6,181
255.57206776733054,10,1,6,6,182
257.20560030271133,10,1,6,6,183
260.82180300309534,10,1,6,6,184
273.31746149070926,10,1,6,6,185
255.480869261472,10,1,6,6,186
267.85891290334865,10,1,6,6,187
269.75509070805373,10,1,6,6,188
264.3693830225618,10,1,6,6,189
255.480869261472,10,1,6,6,190
258.9981842880441,10,1,6,6,191
255.480869261472,10,1,6,6,192
255.4430171670967,10,1,6,6,193
250.1197593687,10,1,6,6,194
257.20560030271133,10,1,6,6,195
259.03657362375014,10,1,6,6,196
273.31746149070926,10,1,6,6,197
262.6161438708189,10,1,6,6,198
267.98818346631884,10,1,6,6,199
255.480869261472,10,1,6,6,200
262.6161438708189,10,1,6,6,201
267.98818346631884,10,1,6,6,202
255.480869261472,10,1,6,6,203
257.20560030271133,10,1,6,6,204
262.6161438708189,10,1,6,6,205
251.91856881429595,10,1,6,6,206
262.6161438708189,10,1,6,6,207
251.91856881429595,10,1,6,6,208
258.90577362827065,10,1,6,6,209
255.4430171670967,10,1,6,6,210
255.4430171670967,10,1,6,6,211
262.52244232156306,10,1,6,6,212
257.1674926718556,10,1,6,6,213
260.78315959495694,10,1,6,6,214
251.82868416426533,10,1,6,6,215
259.05747624302285,10,1,6,6,216
269.75595509771335,10,1,6,6,217
253.73262859741865,10,1,6,6,218
255.4430171670967,10,1,6,6,219
257.20560030271133,10,1,6,6,220
264.2358951759745,10,1,6,6,221
258.90577362827065,10,1,6,6,222
251.82868416426533,10,1,6,6,223
262.52244232156306,10,1,6,6,224
266.13917027253586,10,1,6,6,225
257.1674926718556,10,1,6,6,226
258.90577362827065,10,1,6,6,227
257.1674926718556,10,1,6,6,228
268.01475106807015,10,1,6,6,229
262.52244232156306,10,1,6,6,230
257.1674926718556,10,1,6,6,231
251.82868416426533,10,1,6,6,232
251.82868416426533,10,1,6,6,233
257.1674926718556,10,1,6,6,234
222.24482848827984,10,1,6,7,236
219.57329112539495,10,1,6,7,237
218.69414965062154,10,1,6,7,238
211.01330518617004,10,1,6,7,239
207.83655177062164,10,1,6,7,240
218.016439526551,10,1,6,7,241
216.52506755365752,10,1,6,7,242
223.8454759705352,10,1,6,7,243
222.24482848827984,10,1,6,7,244
218.016439526551,10,1,6,7,245
216.60234263707153,10,1,6,7,246
218.09424686193424,10,1,6,7,247
218.69414965062154,10,1,6,7,248
221.1367370150388,10,1,6,7,249
219.52749966888,10,1,6,7,250
219.57329112539495,10,1,6,7,251
221.1367370150388,10,1,6,7,252
218.61612829383174,10,1,6,7,253
215.05379335579087,10,1,6,7,254
221.05784424042383,10,1,6,7,255
218.016439526551,10,1,6,7,0
221.05784424042383,10,1,6,7,1
219.56003445952007,10,1,6,7,2
221.05784424042383,10,1,6,7,3
218.04875037246686,10,1,6,7,4
221.636451160334,10,1,6,7,5
218.016439526551,10,1,6,7,6
207.38326574997242,10,1,6,7,7
218.04875037246686,10,1,6,7,8
207.79320798152125,10,1,6,7,9
219.60584628269353,10,1,6,7,10
216.60234263707153,10,1,6,7,11
222.68652119658148,10,1,6,7,12
218.016439526551,10,1,6,7,13
221.1039549130143,10,1,6,7,14
218.09424686193424,10,1,6,7,15
218.016439526551,10,1,6,7,16
209.37806114845836,10,1,6,7,17
219.60584628269353,10,1,6,7,18
220.17188006149976,10,1,6,7,19
219.09815547140965,10,1,6,7,20
215.05379335579087,10,1,6,7,21
221.1039549130143,10,1,6,7,22
207.79320798152125,10,1,6,7,23
218.5837286662385,10,1,6,7,24
204.72533568264612,10,1,6,7,25
209.00255094729604,10,1,6,7,26
220.62954598789437,10,1,6,7,27
219.57329112539495,10,1,6,7,28
218.016439526551,10,1,6,7,29
219.52749966888,10,1,6,7,30
221.1039549130143,10,1,6,7,31
219.57329112539495,10,1,6,7,32
218.016439526551,10,1,6,7,33
222.2118821188061,10,1,6,7,34
216.52506755365752,10,1,6,7,35
222.16554039078898,10,1,6,7,36
221.05784424042383,10,1,6,7,37
218.61612829383174,10,1,6,7,38
222.65350934899845,10,1,6,7,39
218.016439526551,10,1,6,7,40
219.57329112539495,10,1,6,7,41
221.05784424042383,10,1,6,7,42
217.15902170479663,10,1,6,7,43
219.57329112539495,10,1,6,7,44
219.06567557601556,10,1,6,7,45
209.42173552363565,10,1,6,7,46
210.32941008719172,10,1,6,7,47
215.9498863511687,10,1,6,7,48
221.05784424042383,10,1,6,7,49
221.59022943699307,10,1,6,7,50
219.52749966888,10,1,6,7,51
219.52749966888,10,1,6,7,52
206.2279182325551,10,1,6,7,53
221.05784424042383,10,1,6,7,54
215.05379335579087,10,1,6,7,55
218.016439526551,10,1,6,7,56
219.57329112539495,10,1,6,7,57
220.13924099332633,10,1,6,7,58
207.79320798152125,10,1,6,7,59
217.52066916281152,10,1,6,7,60
219.49496497305836,10,1,6,7,61
204.68264072982024,10,1,6,7,62
221.02508274251497,10,1,6,7,63
207.42652402882064,10,1,6,7,64
218.016439526551,10,1,6,7,65
219.49496497305836,10,1,6,7,66
209.37806114845836,10,1,6,7,67
217.15902170479663,10,1,6,7,68
219.49496497305836,10,1,6,7,69
217.12683802518134,10,1,6,7,70
216.52506755365752,10,1,6,7,71
217.98412877480092,10,1,6,7,72
219.49496497305836,10,1,6,7,73
212.21746236722797,10,1,6,7,74
206.19735457834437,10,1,6,7,75
221.05784424042383,10,1,6,7,76
209.34703063273045,10,1,6,7,77
221.02508274251497,10,1,6,7,78
137.7148849592643,10,1,6,8,80
137.7148849592643,10,1,6,8,81
137.7148849592643,10,1,6,8,82
137.7148849592643,10,1,6,8,83
136.0162606167235,10,1,6,8,84
137.7148849592643,10,1,6,8,85
136.0162606167235,10,1,6,8,86
137.7148849592643,10,1,6,8,87
137.7148849592643,10,1,6,8,88
139.43978475040697,10,1,6,8,89
137.7148849592643,10,1,6,8,90
137.7148849592643,10,1,6,8,91
137.7148849592643,10,1,6,8,92
137.7148849592643,10,1,6,8,93
137.7148849592643,10,1,6,8,94
137.7148849592643,10,1,6,8,95
137.7148849592643,10,1,6,8,96
137.7148849592643,10,1,6,8,97
137.7148849592643,10,1,6,8,98
137.7148849592643,10,1,6,8,99
137.7148849592643,10,1,6,8,100
137.69446664781364,10,1,6,8,101
137.69446664781364,10,1,6,8,102
137.6861648670629,10,1,6,8,103
137.7148849592643,10,1,6,8,104
135.803396791077,10,1,6,8,105
137.69446664781364,10,1,6,8,106
137.7148849592643,10,1,6,8,107
137.7148849592643,10,1,6,8,108
137.66575932561798,10,1,6,8,109
137.66575932561798,10,1,6,8,110
137.69446664781364,10,1,6,8,111
137.7148849592643,10,1,6,8,112
137.7148849592643,10,1,6,8,113
137.69446664781364,10,1,6,8,114
135.77508372983456,10,1,6,8,115
137.69446664781364,10,1,6,8,116
135.99609415198407,10,1,6,8,117
137.7148849592643,10,1,6,8,118
137.7148849592643,10,1,6,8,119
137.7148849592643,10,1,6,8,120
137.7148849592643,10,1,6,8,121
137.7148849592643,10,1,6,8,122
137.74361400687374,10,1,6,8,123
137.7148849592643,10,1,6,8,124
137.7148849592643,10,1,6,8,125
137.7148849592643,10,1,6,8,126
137.74361400687374,10,1,6,8,127
137.7148849592643,10,1,6,8,128
137.69446664781364,10,1,6,8,129
137.69446664781364,10,1,6,8,130
137.7148849592643,10,1,6,8,131
137.69446664781364,10,1,6,8,132
137.69446664781364,10,1,6,8,133
137.69446664781364,10,1,6,8,134
137.7148849592643,10,1,6,8,135
137.69446664781364,10,1,6,8,136
137.69446664781364,10,1,6,8,137
137.69446664781364,10,1,6,8,138
137.69446664781364,10,1,6,8,139
137.69446664781364,10,1,6,8,140
137.69446664781364,10,1,6,8,141
137.69446664781364,10,1,6,8,142
137.7148849592643,10,1,6,8,143
137.74361400687374,10,1,6,8,144
137.69446664781364,10,1,6,8,145
137.69446664781364,10,1,6,8,146
137.69446664781364,10,1,6,8,147
137.69446664781364,10,1,6,8,148
137.69446664781364,10,1,6,8,149
137.69446664781364,10,1,6,8,150
137.69446664781364,10,1,6,8,151
135.803396791077,10,1,6,8,152
137.69446664781364,10,1,6,8,153
137.69446664781364,10,1,6,8,154
137.69446664781364,10,1,6,8,155
137.69446664781364,10,1,6,8,156
137.69446664781364,10,1,6,8,157
137.66575932561798,10,1,6,8,158
137.69446664781364,10,1,6,8,159
137.69446664781364,10,1,6,8,160
137.69446664781364,10,1,6,8,161
137.69446664781364,10,1,6,8,162
137.69446664781364,10,1,6,8,163
137.66575932561798,10,1,6,8,164
137.69446664781364,10,1,6,8,165
137.64535384893878,10,1,6,8,166
137.64535384893878,10,1,6,8,167
137.69446664781364,10,1,6,8,168
137.69446664781364,10,1,6,8,169
137.66575932561798,10,1,6,8,170
137.64535384893878,10,1,6,8,171
137.64535384893878,10,1,6,8,172
137.64535384893878,10,1,6,8,173
137.67404840495632,10,1,6,8,174
137.69446664781364,10,1,6,8,175
137.69446664781364,10,1,6,8,176
137.66575932561798,10,1,6,8,177
137.67404840495632,10,1,6,8,178
137.67404840495632,10,1,6,8,179
135.97592775499191,10,1,6,8,180
137.64535384893878,10,1,6,8,181
137.69446664781364,10,1,6,8,182
137.69446664781364,10,1,6,8,183
137.67404840495632,10,1,6,8,184
135.78325896851928,10,1,6,8,185
137.67404840495632,10,1,6,8,186
137.64535384893878,10,1,6,8,187
137.69446664781364,10,1,6,8,188
137.67404840495632,10,1,6,8,189
137.64535384893878,10,1,6,8,190
137.64535384893878,10,1,6,8,191
137.67404840495632,10,1,6,8,192
137.69446664781364,10,1,6,8,193
137.67404840495632,10,1,6,8,194
137.67404840495632,10,1,6,8,195
137.64535384893878,10,1,6,8,196
137.64535384893878,10,1,6,8,197
137.64535384893878,10,1,6,8,198
137.67404840495632,10,1,6,8,199
137.67404840495632,10,1,6,8,200
137.64535384893878,10,1,6,8,201
137.69446664781364,10,1,6,8,202
137.67404840495632,10,1,6,8,203
137.67404840495632,10,1,6,8,204
137.67404840495632,10,1,6,8,205
137.67404840495632,10,1,6,8,206
137.69446664781364,10,1,6,8,207
137.69446664781364,10,1,6,8,208
137.67404840495632,10,1,6,8,209
137.69446664781364,10,1,6,8,210
137.69446664781364,10,1,6,8,211
137.69446664781364,10,1,6,8,212
137.67404840495632,10,1,6,8,213
137.72318291610753,10,1,6,8,214
135.803396791077,10,1,6,8,215
135.78325896851928,10,1,6,8,216
137.69446664781364,10,1,6,8,217
137.67404840495632,10,1,6,8,218
137.67404840495632,10,1,6,8,219
137.67404840495632,10,1,6,8,220
137.67404840495632,10,1,6,8,221
137.67404840495632,10,1,6,8,222
137.67404840495632,10,1,6,8,223
137.67404840495632,10,1,6,8,224
139.41911069651303,10,1,6,8,225
137.67404840495632,10,1,6,8,226
137.67404840495632,10,1,6,8,227
137.69446664781364,10,1,6,8,228
137.64535384893878,10,1,6,8,229
137.67404840495632,10,1,6,8,230
137.67404840495632,10,1,6,8,231
137.64535384893878,10,1,6,8,232
137.67404840495632,10,1,6,8,233
137.67404840495632,10,1,6,8,234
137.67404840495632,10,1,6,8,235
137.67404840495632,10,1,6,8,236
137.67404840495632,10,1,6,8,237
137.67404840495632,10,1,6,8,238
137.64535384893878,10,1,6,8,239
137.65363023598576,10,1,6,8,240
137.62494844231608,10,1,6,8,241
137.62494844231608,10,1,6,8,242
137.65363023598576,10,1,6,8,243
137.64535384893878,10,1,6,8,244
137.67404840495632,10,1,6,8,245
139.36938275239407,10,1,6,8,246
137.67404840495632,10,1,6,8,247
137.67404840495632,10,1,6,8,248
137.67404840495632,10,1,6,8,249
137.67404840495632,10,1,6,8,250
137.67404840495632,10,1,6,8,251
137.67404840495632,10,1,6,8,252
137.67404840495632,10,1,6,8,253
137.67404840495632,10,1,6,8,254
137.67404840495632,10,1,6,8,255
139.39843671207157,10,1,6,8,0
137.67404840495632,10,1,6,8,1
135.7348333355132,10,1,6,8,2
135.76312121883362,10,1,6,8,3
137.65363023598576,10,1,6,8,4
135.78325896851928,10,1,6,8,5
137.67404840495632,10,1,6,8,6
137.67404840495632,10,1,6,8,7
137.65363023598576,10,1,6,8,8
137.67404840495632,10,1,6,8,9
137.67404840495632,10,1,6,8,10
137.67404840495632,10,1,6,8,11
137.67404840495632,10,1,6,8,12
137.67404840495632,10,1,6,8,13
137.67404840495632,10,1,6,8,14
137.67404840495632,10,1,6,8,15
139.39843671207157,10,1,6,8,16
137.64535384893878,10,1,6,8,17
137.62494844231608,10,1,6,8,18
137.67404840495632,10,1,6,8,19
137.65363023598576,10,1,6,8,20
137.67404840495632,10,1,6,8,21
137.67404840495632,10,1,6,8,22
136.0422880790845,10,1,7,2,24
134.3369042248654,10,1,7,2,25
134.3369042248654,10,1,7,2,26
134.3369042248654,10,1,7,2,27
134.35687426323113,10,1,7,2,28
134.37684437391835,10,1,7,2,29
131.0069770040078,10,1,7,2,30
127.41227975625361,10,1,7,2,31
136.12319446048875,10,1,7,2,32
129.09839156819498,10,1,7,2,33
130.9990607646951,10,1,7,2,34
134.26985439433057,10,1,7,2,35
127.40457006277967,10,1,7,2,36
129.09839156819498,10,1,7,2,37
132.49110305918083,10,1,7,2,38
129.0714009204951,10,1,7,2,39
129.0714009204951,10,1,7,2,40
136.1149576711778,10,1,7,2,41
132.6895174018065,10,1,7,2,42
137.867325363952,10,1,7,2,43
129.0714009204951,10,1,7,2,44
143.2713368552428,10,1,7,2,45
134.4086399969409,10,1,7,2,46
134.43675508787973,10,1,7,2,47
127.40457006277967,10,1,7,2,48
129.0714009204951,10,1,7,2,49
139.64480303188714,10,1,7,2,50
134.38868222534475,10,1,7,2,51
129.37677532427503,10,1,7,2,52
129.0714009204951,10,1,7,2,53
132.49110305918083,10,1,7,2,54
134.4086399969409,10,1,7,2,55
127.40457006277967,10,1,7,2,56
132.70922283412168,10,1,7,2,57
136.13517180819468,10,1,7,2,58
134.38868222534475,10,1,7,2,59
129.09056903418232,10,1,7,2,60
127.40457006277967,10,1,7,2,61
129.09056903418232,10,1,7,2,62
127.42349063903296,10,1,7,2,63
129.11757171115175,10,1,7,2,64
137.8877997412927,10,1,7,2,65
132.55818549394513,10,1,7,2,66
134.43675508787973,10,1,7,2,67
129.11757171115175,10,1,7,2,68
138.05973442406938,10,1,7,2,69
129.11757171115175,10,1,7,2,70
136.1636480485275,10,1,7,2,71
134.43675508787973,10,1,7,2,72
127.45014460284911,10,1,7,2,73
129.42305535197082,10,1,7,2,74
127.45014460284911,10,1,7,2,75
136.1636480485275,10,1,7,2,76
129.13675190355934,10,1,7,2,77
132.55818549394513,10,1,7,2,78
127.45014460284911,10,1,7,2,79
145.12517085135465,10,1,7,2,80
152.44725770297464,10,1,7,2,81
134.43675508787973,10,1,7,2,82
129.13675190355934,10,1,7,2,83
137.91664258970752,10,1,7,2,84
137.8689123087869,10,1,7,2,85
136.18387492341276,10,1,7,2,86
139.71550750315552,10,1,7,2,87
132.73698244740606,10,1,7,2,88
139.78895350698645,10,1,7,2,89
129.11757171115175,10,1,7,2,90
134.30975137973314,10,1,7,2,91
129.11757171115175,10,1,7,2,92
132.55818549394513,10,1,7,2,93
141.56457446484077,10,1,7,2,94
134.30975137973314,10,1,7,2,95
147.0399823178159,10,1,7,2,96
127.46907710183791,10,1,7,2,97
141.5435484150423,10,1,7,2,98
139.71550750315552,10,1,7,2,99
134.28980286131602,10,1,7,2,100
134.4567254357965,10,1,7,2,101
132.73698244740606,10,1,7,2,102
127.46907710183791,10,1,7,2,103
129.11757171115175,10,1,7,2,104
134.43675508787973,10,1,7,2,105
130.83349341925302,10,1,7,2,106
129.13675190355934,10,1,7,2,107
139.69475608826596,10,1,7,2,108
127.45014460284911,10,1,7,2,109
132.73698244740606,10,1,7,2,110
134.68131915230222,10,1,7,2,111
139.69475608826596,10,1,7,2,112
137.88939249773458,10,1,7,2,113
127.45014460284911,10,1,7,2,114
134.43675508787973,10,1,7,2,115
145.17051538326928,10,1,7,2,116
130.81406121625778,10,1,7,2,117
134.28980286131602,10,1,7,2,118
139.69475608826596,10,1,7,2,119
134.28980286131602,10,1,7,2,120
129.39598878845237,10,1,7,2,121
134.43675508787973,10,1,7,2,122
134.26985439433057,10,1,7,3,124
134.24178254701593,10,1,7,3,125
134.2617185028596,10,1,7,3,126
134.416784791451,10,1,7,3,127
134.28980286131602,10,1,7,3,128
134.26985439433057,10,1,7,3,129
136.1149576711778,10,1,7,3,130
132.53849712897158,10,1,7,3,131
134.28980286131602,10,1,7,3,132
134.28980286131602,10,1,7,3,133
134.26985439433057,10,1,7,3,134
134.24178254701593,10,1,7,3,135
134.416784791451,10,1,7,3,136
136.1636480485275,10,1,7,3,137
134.28980286131602,10,1,7,3,138
134.24178254701593,10,1,7,3,139
134.24178254701593,10,1,7,3,140
134.28980286131602,10,1,7,3,141
134.2617185028596,10,1,7,3,142
134.28980286131602,10,1,7,3,143
134.24178254701593,10,1,7,3,144
134.24178254701593,10,1,7,3,145
132.51880881475904,10,1,7,3,146
132.51880881475904,10,1,7,3,147
134.26985439433057,10,1,7,3,148
134.26985439433057,10,1,7,3,149
134.24178254701593,10,1,7,3,150
134.28980286131602,10,1,7,3,151
134.26985439433057,10,1,7,3,152
134.24178254701593,10,1,7,3,153
134.28980286131602,10,1,7,3,154
134.28980286131602,10,1,7,3,155
134.28980286131602,10,1,7,3,156
132.51880881475904,10,1,7,3,157
132.53849712897158,10,1,7,3,158
134.26985439433057,10,1,7,3,159
134.28980286131602,10,1,7,3,160
134.28980286131602,10,1,7,3,161
134.28980286131602,10,1,7,3,162
134.28980286131602,10,1,7,3,163
134.28980286131602,10,1,7,3,164
134.28980286131602,10,1,7,3,165
134.28980286131602,10,1,7,3,166
136.14342122579163,10,1,7,3,167
134.26985439433057,10,1,7,3,168
134.28980286131602,10,1,7,3,169
136.14342122579163,10,1,7,3,170
134.26985439433057,10,1,7,3,171
134.28980286131602,10,1,7,3,172
134.28980286131602,10,1,7,3,173
134.28980286131602,10,1,7,3,174
134.26985439433057,10,1,7,3,175
132.49110305918083,10,1,7,3,176
132.51880881475904,10,1,7,3,177
134.24178254701593,10,1,7,3,178
136.1149576711778,10,1,7,3,179
136.14342122579163,10,1,7,3,180
134.24178254701593,10,1,7,3,181
132.51880881475904,10,1,7,3,182
134.26985439433057,10,1,7,3,183
136.04672844283684,10,1,7,3,184
134.24178254701593,10,1,7,3,185
136.14342122579163,10,1,7,3,186
134.24178254701593,10,1,7,3,187
134.26985439433057,10,1,7,3,188
134.26985439433057,10,1,7,3,189
134.416784791451,10,1,7,3,190
132.49110305918083,10,1,7,3,191
134.26985439433057,10,1,7,3,192
134.24178254701593,10,1,7,3,193
134.26985439433057,10,1,7,3,194
134.24178254701593,10,1,7,3,195
134.22184664406421,10,1,7,3,196
136.12319446048875,10,1,7,3,197
134.26985439433057,10,1,7,3,198
134.26985439433057,10,1,7,3,199
136.14342122579163,10,1,7,3,200
134.22184664406421,10,1,7,3,201
132.49110305918083,10,1,7,3,202
134.26985439433057,10,1,7,3,203
132.4714271451514,10,1,7,3,204
132.51880881475904,10,1,7,3,205
132.49912055645038,10,1,7,3,206
132.49912055645038,10,1,7,3,207
134.24990598398776,10,1,7,3,208
134.26985439433057,10,1,7,3,209
134.26985439433057,10,1,7,3,210
134.26985439433057,10,1,7,3,211
134.26985439433057,10,1,7,3,212
134.26985439433057,10,1,7,3,213
134.26985439433057,10,1,7,3,214
134.26985439433057,10,1,7,3,215
134.26985439433057,10,1,7,3,216
134.26985439433057,10,1,7,3,217
136.12319446048875,10,1,7,3,218
132.49912055645038,10,1,7,3,219
134.24178254701593,10,1,7,3,220
134.22184664406421,10,1,7,3,221
136.14342122579163,10,1,7,3,222
138.01871751756624,10,1,7,4,224
138.0103660305058,10,1,7,4,225
138.01871751756624,10,1,7,4,226
138.03922594170143,10,1,7,4,227
137.98987046488304,10,1,7,4,228
138.03922594170143,10,1,7,4,229
138.03922594170143,10,1,7,4,230
138.03922594170143,10,1,7,4,231
138.01871751756624,10,1,7,4,232
138.03922594170143,10,1,7,4,233
139.76818815277088,10,1,7,4,234
138.03922594170143,10,1,7,4,235
138.03922594170143,10,1,7,4,236
138.01871751756624,10,1,7,4,237
138.01871751756624,10,1,7,4,238
138.03922594170143,10,1,7,4,239
138.03922594170143,10,1,7,4,240
138.03922594170143,10,1,7,4,241
138.03922594170143,10,1,7,4,242
138.03922594170143,10,1,7,4,243
139.76818815277088,10,1,7,4,244
138.03922594170143,10,1,7,4,245
138.01871751756624,10,1,7,4,246
138.01871751756624,10,1,7,4,247
138.03922594170143,10,1,7,4,248
138.01871751756624,10,1,7,4,249
138.03922594170143,10,1,7,4,250
138.01871751756624,10,1,7,4,251
138.03922594170143,10,1,7,4,252
138.01871751756624,10,1,7,4,253
137.98987046488304,10,1,7,4,254
138.01871751756624,10,1,7,4,255
137.98987046488304,10,1,7,4,0
141.64088397080383,10,1,7,4,1
138.01871751756624,10,1,7,4,2
138.01871751756624,10,1,7,4,3
137.98987046488304,10,1,7,4,4
138.01871751756624,10,1,7,4,5
137.98987046488304,10,1,7,4,6
138.01871751756624,10,1,7,4,7
137.98987046488304,10,1,7,4,8
138.01871751756624,10,1,7,4,9
138.01871751756624,10,1,7,4,10
137.98987046488304,10,1,7,4,11
137.98987046488304,10,1,7,4,12
138.01871751756624,10,1,7,4,13
138.01871751756624,10,1,7,4,14
138.01871751756624,10,1,7,4,15
138.01871751756624,10,1,7,4,16
138.01871751756624,10,1,7,4,17
138.01871751756624,10,1,7,4,18
137.98987046488304,10,1,7,4,19
137.96937495898587,10,1,7,4,20
138.01871751756624,10,1,7,4,21
137.98987046488304,10,1,7,4,22
138.01871751756624,10,1,7,4,23
138.01871751756624,10,1,7,4,24
138.01871751756624,10,1,7,4,25
138.01871751756624,10,1,7,4,26
138.01871751756624,10,1,7,4,27
138.01871751756624,10,1,7,4,28
138.03922594170143,10,1,7,4,29
138.01871751756624,10,1,7,4,30
138.03922594170143,10,1,7,4,31
138.03922594170143,10,1,7,4,32
138.01871751756624,10,1,7,4,33
138.01871751756624,10,1,7,4,34
138.03922594170143,10,1,7,4,35
138.03922594170143,10,1,7,4,36
138.01871751756624,10,1,7,4,37
138.01871751756624,10,1,7,4,38
139.74742285751736,10,1,7,4,39
138.01871751756624,10,1,7,4,40
138.01871751756624,10,1,7,4,41
138.01871751756624,10,1,7,4,42
137.99820915701528,10,1,7,4,43
138.01871751756624,10,1,7,4,44
138.01871751756624,10,1,7,4,45
138.01871751756624,10,1,7,4,46
138.01871751756624,10,1,7,4,47
138.01871751756624,10,1,7,4,48
138.01871751756624,10,1,7,4,49
138.01871751756624,10,1,7,4,50
138.01871751756624,10,1,7,4,51
138.01871751756624,10,1,7,4,52
138.01871751756624,10,1,7,4,53
137.98987046488304,10,1,7,4,54
138.01871751756624,10,1,7,4,55
138.01871751756624,10,1,7,4,56
138.01871751756624,10,1,7,4,57
138.01871751756624,10,1,7,4,58
138.01871751756624,10,1,7,4,59
138.01871751756624,10,1,7,4,60
138.01871751756624,10,1,7,4,61
138.01871751756624,10,1,7,4,62
138.01871751756624,10,1,7,4,63
138.01871751756624,10,1,7,4,64
139.74742285751736,10,1,7,4,65
138.03922594170143,10,1,7,4,66
136.60556023310457,10,1,7,5,68
157.78715685184565,10,1,7,5,69
138.2362604106465,10,1,7,5,70
148.75333196485494,10,1,7,5,71
143.37179403146897,10,1,7,5,72
146.90677469839895,10,1,7,5,73
152.35668842288655,10,1,7,5,74
148.73122853555228,10,1,7,5,75
148.73122853555228,10,1,7,5,76
154.1603506927993,10,1,7,5,77
141.64088397080383,10,1,7,5,78
155.94003419596177,10,1,7,5,79
150.51118839503678,10,1,7,5,80
136.58526185522572,10,1,7,5,81
152.35668842288655,10,1,7,5,82
154.16035069279928,10,1,7,5,83
148.68700934963795,10,1,7,5,84
145.2417093605606,10,1,7,5,85
145.10582125094612,10,1,7,5,86
139.72665762664445,10,1,7,5,87
138.25680414876481,10,1,7,5,88
141.6198373883585,10,1,7,5,89
146.97445507182005,10,1,7,5,90
138.25680414876481,10,1,7,5,91
152.35668842288655,10,1,7,5,92
143.53386159597335,10,1,7,5,93
148.88593041516057,10,1,7,5,94
145.2632942011234,10,1,7,5,95
148.73122853555228,10,1,7,5,96
138.25680414876481,10,1,7,5,97
148.70910620738428,10,1,7,5,98
141.6198373883585,10,1,7,5,99
139.96482844149546,10,1,7,5,100
145.2632942011234,10,1,7,5,101
146.88494565117202,10,1,7,5,102
138.25680414876481,10,1,7,5,103
145.12738589673708,10,1,7,5,104
146.88494565117202,10,1,7,5,105
154.13744382834255,10,1,7,5,106
159.73130303536112,10,1,7,5,107
150.59854254539434,10,1,7,5,108
137.99820915701528,10,1,7,5,109
148.70910620738428,10,1,7,5,110
145.12738589673708,10,1,7,5,111
138.2362604106465,10,1,7,5,112
152.35668842288655,10,1,7,5,113
138.2362604106465,10,1,7,5,114
161.47145829674244,10,1,7,5,115
154.1603506927993,10,1,7,5,116
148.68700934963795,10,1,7,5,117
136.60556023310457,10,1,7,5,118
136.58526185522572,10,1,7,5,119
145.2417093605606,10,1,7,5,120
141.6198373883585,10,1,7,5,121
145.10582125094612,10,1,7,5,122
150.51118839503678,10,1,7,5,123
141.6198373883585,10,1,7,5,124
138.2362604106465,10,1,7,5,125
138.2362604106465,10,1,7,5,126
146.88494565117202,10,1,7,5,127
136.29609019311042,10,1,7,5,128
145.2417093605606,10,1,7,5,129
143.35049025109973,10,1,7,5,130
146.97445507182005,10,1,7,5,131
159.60775166735579,10,1,7,5,132
143.53386159597335,10,1,7,5,133
145.10582125094612,10,1,7,5,134
152.31352177279987,10,1,7,5,135
146.97445507182005,10,1,7,5,136
143.35049025109973,10,1,7,5,137
141.6198373883585,10,1,7,5,138
138.26515336965988,10,1,7,5,139
143.35049025109973,10,1,7,5,140
138.2362604106465,10,1,7,5,141
154.13744382834255,10,1,7,5,142
136.5649635455713,10,1,7,5,143
143.35049025109973,10,1,7,5,144
143.32918654233418,10,1,7,5,145
139.88554376435823,10,1,7,5,146
138.2362604106465,10,1,7,5,147
148.73122853555228,10,1,7,5,148
146.88494565117202,10,1,7,5,149
138.2362604106465,10,1,7,5,150
145.46790745643625,10,1,7,5,151
148.68700934963795,10,1,7,5,152
143.53386159597335,10,1,7,5,153
145.08425667763558,10,1,7,5,154
138.2157167415773,10,1,7,5,155
141.59879087665237,10,1,7,5,156
146.86311667731417,10,1,7,5,157
157.74026537910797,10,1,7,5,158
150.48882051531828,10,1,7,5,159
148.73122853555228,10,1,7,5,160
145.10582125094612,10,1,7,5,161
138.2362604106465,10,1,7,5,162
146.9526127957222,10,1,7,5,163
143.32918654233418,10,1,7,5,164
145.08425667763558,10,1,7,5,165
141.59879087665237,10,1,7,5,166
143.32918654233418,10,1,7,6,168
143.32918654233418,10,1,7,6,169
143.35049025109973,10,1,7,6,170
143.35049025109973,10,1,7,6,171
143.35049025109973,10,1,7,6,172
143.32918654233418,10,1,7,6,173
143.35049025109973,10,1,7,6,174
141.48047061286957,10,1,7,6,175
143.35049025109973,10,1,7,6,176
143.32918654233418,10,1,7,6,177
143.32918654233418,10,1,7,6,178
143.32918654233418,10,1,7,6,179
143.35049025109973,10,1,7,6,180
143.32918654233418,10,1,7,6,181
141.4594448128415,10,1,7,6,182
143.32918654233418,10,1,7,6,183
141.4594448128415,10,1,7,6,184
143.35049025109973,10,1,7,6,185
143.32918654233418,10,1,7,6,186
143.2992473548522,10,1,7,6,187
143.2992473548522,10,1,7,6,188
143.32918654233418,10,1,7,6,189
143.35049025109973,10,1,7,6,190
143.2992473548522,10,1,7,6,191
145.053950883916,10,1,7,6,192
143.2992473548522,10,1,7,6,193
141.4594448128415,10,1,7,6,194
143.32918654233418,10,1,7,6,195
141.4594448128415,10,1,7,6,196
143.32918654233418,10,1,7,6,197
143.2992473548522,10,1,7,6,198
143.2992473548522,10,1,7,6,199
143.2992473548522,10,1,7,6,200
143.2992473548522,10,1,7,6,201
143.32918654233418,10,1,7,6,202
141.42989618466942,10,1,7,6,203
143.27795706843605,10,1,7,6,204
143.2992473548522,10,1,7,6,205
143.2992473548522,10,1,7,6,206
143.27795706843605,10,1,7,6,207
143.2992473548522,10,1,7,6,208
141.4594448128415,10,1,7,6,209
141.4594448128415,10,1,7,6,210
143.32918654233418,10,1,7,6,211
143.32918654233418,10,1,7,6,212
143.2992473548522,10,1,7,6,213
141.4594448128415,10,1,7,6,214
141.48047061286957,10,1,7,6,215
143.32918654233418,10,1,7,6,216
143.32918654233418,10,1,7,6,217
141.4594448128415,10,1,7,6,218
141.40888363189504,10,1,7,6,219
143.32918654233418,10,1,7,6,220
141.4594448128415,10,1,7,6,221
141.42989618466942,10,1,7,6,222
143.30788291071966,10,1,7,6,223
143.30788291071966,10,1,7,6,224
143.30788291071966,10,1,7,6,225
141.4594448128415,10,1,7,6,226
143.30788291071966,10,1,7,6,227
143.32918654233418,10,1,7,6,228
143.2992473548522,10,1,7,6,229
143.32918654233418,10,1,7,6,230
141.4594448128415,10,1,7,6,231
143.32918654233418,10,1,7,6,232
143.32918654233418,10,1,7,6,233
141.4594448128415,10,1,7,6,234
141.43841908895797,10,1,7,6,235
143.2992473548522,10,1,7,6,236
143.30788291071966,10,1,7,6,237
143.32918654233418,10,1,7,6,238
143.32918654233418,10,1,7,6,239
143.2992473548522,10,1,7,6,240
141.4594448128415,10,1,7,6,241
143.32918654233418,10,1,7,6,242
143.32918654233418,10,1,7,6,243
143.32918654233418,10,1,7,6,244
141.4594448128415,10,1,7,6,245
143.23742649032818,10,1,7,6,246
143.32918654233418,10,1,7,6,247
143.32918654233418,10,1,7,6,248
143.32918654233418,10,1,7,6,249
141.4594448128415,10,1,7,6,250
143.32918654233418,10,1,7,6,251
143.30788291071966,10,1,7,6,252
141.43841908895797,10,1,7,6,253
141.4594448128415,10,1,7,6,254
143.30788291071966,10,1,7,6,255
143.30788291071966,10,1,7,6,0
143.32918654233418,10,1,7,6,1
143.32918654233418,10,1,7,6,2
141.4594448128415,10,1,7,6,3
143.30788291071966,10,1,7,6,4
141.4594448128415,10,1,7,6,5
143.32918654233418,10,1,7,6,6
143.32918654233418,10,1,7,6,7
143.32918654233418,10,1,7,6,8
143.30788291071966,10,1,7,6,9
143.32918654233418,10,1,7,6,10
364.6450748759107,10,1,7,7,12
364.5009250160996,10,1,7,7,13
364.5550877725439,10,1,7,7,14
364.5550877725439,10,1,7,7,15
366.25388365401756,10,1,7,7,16
362.7576045656964,10,1,7,7,17
364.5550877725439,10,1,7,7,18
366.25388365401756,10,1,7,7,19
364.3927751991558,10,1,7,7,20
364.5009250160996,10,1,7,7,21
366.3794144034414,10,1,7,7,22
366.3794144034414,10,1,7,7,23
362.9205481239892,10,1,7,7,24
366.1641924848867,10,1,7,7,25
364.5550877725439,10,1,7,7,26
366.25388365401756,10,1,7,7,27
364.5550877725439,10,1,7,7,28
366.25388365401756,10,1,7,7,29
364.5009250160996,10,1,7,7,30
364.5550877725439,10,1,7,7,31
364.5009250160996,10,1,7,7,32
364.5009250160996,10,1,7,7,33
366.3794144034414,10,1,7,7,34
364.5009250160996,10,1,7,7,35
364.5009250160996,10,1,7,7,36
366.25388365401756,10,1,7,7,37
364.5009250160996,10,1,7,7,38
366.25388365401756,10,1,7,7,39
364.5009250160996,10,1,7,7,40
364.5009250160996,10,1,7,7,41
366.25388365401756,10,1,7,7,42
364.44676245980764,10,1,7,7,43
366.25388365401756,10,1,7,7,44
366.3794144034414,10,1,7,7,45
364.5009250160996,10,1,7,7,46
364.5009250160996,10,1,7,7,47
366.25388365401756,10,1,7,7,48
364.3927751991558,10,1,7,7,49
366.25388365401756,10,1,7,7,50
364.6450748759107,10,1,7,7,51
366.25388365401756,10,1,7,7,52
364.5009250160996,10,1,7,7,53
364.5009250160996,10,1,7,7,54
364.3927751991558,10,1,7,7,55
366.3794144034414,10,1,7,7,56
366.25388365401756,10,1,7,7,57
362.7576045656964,10,1,7,7,58
366.1641924848867,10,1,7,7,59
366.1994606190426,10,1,7,7,60
364.5009250160996,10,1,7,7,61
364.5009250160996,10,1,7,7,62
364.44676245980764,10,1,7,7,63
364.44676245980764,10,1,7,7,64
366.1641924848867,10,1,7,7,65
364.3927751991558,10,1,7,7,66
366.1641924848867,10,1,7,7,67
366.25388365401756,10,1,7,7,68
364.5009250160996,10,1,7,7,69
366.25388365401756,10,1,7,7,70
366.25388365401756,10,1,7,7,71
364.44676245980764,10,1,7,7,72
366.25388365401756,10,1,7,7,73
364.3927751991558,10,1,7,7,74
364.5009250160996,10,1,7,7,75
366.25388365401756,10,1,7,7,76
366.25388365401756,10,1,7,7,77
366.3083068901075,10,1,7,7,78
364.3927751991558,10,1,7,7,79
366.25388365401756,10,1,7,7,80
366.2951156172731,10,1,7,7,81
366.25388365401756,10,1,7,7,82
364.5009250160996,10,1,7,7,83
366.25388365401756,10,1,7,7,84
366.4559384745248,10,1,7,7,85
364.5009250160996,10,1,7,7,86
362.7576045656964,10,1,7,7,87
364.57705673529375,10,1,7,7,88
366.10978277745824,10,1,7,7,89
366.25388365401756,10,1,7,7,90
364.5009250160996,10,1,7,7,91
366.25388365401756,10,1,7,7,92
366.25388365401756,10,1,7,7,93
364.4688843295691,10,1,7,7,94
366.2406716035062,10,1,7,7,95
366.25388365401756,10,1,7,7,96
364.72123670305774,10,1,7,7,97
366.25388365401756,10,1,7,7,98
364.57705673529375,10,1,7,7,99
364.5009250160996,10,1,7,7,100
364.5009250160996,10,1,7,7,101
366.3794144034414,10,1,7,7,102
362.7576045656964,10,1,7,7,103
364.5009250160996,10,1,7,7,104
366.10978277745824,10,1,7,7,105
362.57693539772913,10,1,7,7,106
364.44676245980764,10,1,7,7,107
362.7037010559132,10,1,7,7,108
364.3386287132498,10,1,7,7,109
366.1994606190426,10,1,7,7,110
139.66436237441025,10,1,7,8,112
139.66436237441025,10,1,7,8,113
137.9078888530519,10,1,7,8,114
137.9366845102991,10,1,7,8,115
139.66436237441025,10,1,7,8,116
139.63520604719486,10,1,7,8,117
141.5271467162237,10,1,7,8,118
141.5271467162237,10,1,7,8,119
139.8024238584547,10,1,7,8,120
139.8232037170464,10,1,7,8,121
141.50611362573895,10,1,7,8,122
141.55669808737377,10,1,7,8,123
141.55669808737377,10,1,7,8,124
139.66436237441025,10,1,7,8,125
139.85239929884327,10,1,7,8,126
141.55669808737377,10,1,7,8,127
141.55669808737377,10,1,7,8,128
141.55669808737377,10,1,7,8,129
139.63520604719486,10,1,7,8,130
139.66436237441025,10,1,7,8,131
141.55669808737377,10,1,7,8,132
141.57774444116586,10,1,7,8,133
141.55669808737377,10,1,7,8,134
141.55669808737377,10,1,7,8,135
141.5271467162237,10,1,7,8,136
139.66436237441025,10,1,7,8,137
141.55669808737377,10,1,7,8,138
141.55669808737377,10,1,7,8,139
139.66436237441025,10,1,7,8,140
139.61445412792148,10,1,7,8,141
141.55669808737377,10,1,7,8,142
139.85239929884327,10,1,7,8,143
139.66436237441025,10,1,7,8,144
139.8024238584547,10,1,7,8,145
139.6435974551321,10,1,7,8,146
141.55669808737377,10,1,7,8,147
141.55669808737377,10,1,7,8,148
139.6435974551321,10,1,7,8,149
137.8873936394331,10,1,7,8,150
139.66436237441025,10,1,7,8,151
139.61445412792148,10,1,7,8,152
139.85239929884327,10,1,7,8,153
141.55669808737377,10,1,7,8,154
139.61445412792148,10,1,7,8,155
139.66436237441025,10,1,7,8,156
139.66436237441025,10,1,7,8,157
139.61445412792148,10,1,7,8,158
141.50611362573895,10,1,7,8,159
141.50611362573895,10,1,7,8,160
139.61445412792148,10,1,7,8,161
139.8024238584547,10,1,7,8,162
141.53565182074504,10,1,7,8,163
141.5271467162237,10,1,7,8,164
141.53565182074504,10,1,7,8,165
139.61445412792148,10,1,7,8,166
141.50611362573895,10,1,7,8,167
137.8873936394331,10,1,7,8,168
141.50611362573895,10,1,7,8,169
141.50611362573895,10,1,7,8,170
139.6435974551321,10,1,7,8,171
139.61445412792148,10,1,7,8,172
139.85239929884327,10,1,7,8,173
141.55669808737377,10,1,7,8,174
137.91617645748838,10,1,7,8,175
141.53565182074504,10,1,7,8,176
139.61445412792148,10,1,7,8,177
137.91617645748838,10,1,7,8,178
141.50611362573895,10,1,7,8,179
141.50611362573895,10,1,7,8,180
141.55669808737377,10,1,7,8,181
139.61445412792148,10,1,7,8,182
141.50611362573895,10,1,7,8,183
137.86689851219987,10,1,7,8,184
139.78164408744837,10,1,7,8,185
139.78164408744837,10,1,7,8,186
139.59370229611565,10,1,7,8,187
141.50611362573895,10,1,7,8,188
141.50611362573895,10,1,7,8,189
139.61445412792148,10,1,7,8,190
141.50611362573895,10,1,7,8,191
141.48508062390687,10,1,7,8,192
139.59370229611565,10,1,7,8,193
141.50611362573895,10,1,7,8,194
141.50611362573895,10,1,7,8,195
141.48508062390687,10,1,7,8,196
139.59370229611565,10,1,7,8,197
141.48508062390687,10,1,7,8,198
141.48508062390687,10,1,7,8,199
141.48508062390687,10,1,7,8,200
139.61445412792148,10,1,7,8,201
141.50611362573895,10,1,7,8,202
139.59370229611565,10,1,7,8,203
139.8024238584547,10,1,7,8,204
139.8024238584547,10,1,7,8,205
139.61445412792148,10,1,7,8,206
139.61445412792148,10,1,7,8,207
141.50611362573895,10,1,7,8,208
141.53565182074504,10,1,7,8,209
139.8024238584547,10,1,7,8,210
137.8873936394331,10,1,7,8,211
141.53565182074504,10,1,7,8,212
139.59370229611565,10,1,7,8,213
139.61445412792148,10,1,7,8,214
139.8024238584547,10,1,7,8,215
141.48508062390687,10,1,7,8,216
139.59370229611565,10,1,7,8,217
139.61445412792148,10,1,7,8,218
141.50611362573895,10,1,7,8,219
139.61445412792148,10,1,7,8,220
139.61445412792148,10,1,7,8,221
141.48508062390687,10,1,7,8,222
139.59370229611565,10,1,7,8,223
139.78164408744837,10,1,7,8,224
141.48508062390687,10,1,7,8,225
139.59370229611565,10,1,7,8,226
139.78164408744837,10,1,7,8,227
139.78164408744837,10,1,7,8,228
139.59370229611565,10,1,7,8,229
141.48508062390687,10,1,7,8,230
139.59370229611565,10,1,7,8,231
139.59370229611565,10,1,7,8,232
139.59370229611565,10,1,7,8,233
139.59370229611565,10,1,7,8,234
141.48508062390687,10,1,7,8,235
141.48508062390687,10,1,7,8,236
139.59370229611565,10,1,7,8,237
141.48508062390687,10,1,7,8,238
139.59370229611565,10,1,7,8,239
141.48508062390687,10,1,7,8,240
141.50611362573895,10,1,7,8,241
141.53565182074504,10,1,7,8,242
141.53565182074504,10,1,7,8,243
139.6435974551321,10,1,7,8,244
139.8316064227443,10,1,7,8,245
141.53565182074504,10,1,7,8,246
139.62283262724236,10,1,7,8,247
139.8316064227443,10,1,7,8,248
141.51460564674295,10,1,7,8,249
141.53565182074504,10,1,7,8,250
139.59370229611565,10,1,7,8,251
137.86689851219987,10,1,7,8,252
141.48508062390687,10,1,7,8,253
139.8108136381568,10,1,7,8,254
141.48508062390687,10,1,7,8,255
139.78164408744837,10,1,7,8,0
141.48508062390687,10,1,7,8,1
141.46404771618222,10,1,7,8,2
137.86689851219987,10,1,7,8,3
141.48508062390687,10,1,7,8,4
141.48508062390687,10,1,7,8,5
141.48508062390687,10,1,7,8,6
137.86689851219987,10,1,7,8,7
141.51460564674295,10,1,7,8,8
141.48508062390687,10,1,7,8,9
141.48508062390687,10,1,7,8,10
139.62283262724236,10,1,7,8,11
141.48508062390687,10,1,7,8,12
139.59370229611565,10,1,7,8,13
137.86689851219987,10,1,7,8,14
141.48508062390687,10,1,7,8,15
139.62283262724236,10,1,7,8,16
141.3458464613067,10,1,7,8,17
141.48508062390687,10,1,7,8,18
139.62283262724236,10,1,7,8,19
139.59370229611565,10,1,7,8,20
139.59370229611565,10,1,7,8,21
139.57295055715923,10,1,7,8,22
141.48508062390687,10,1,7,8,23
139.8108136381568,10,1,7,8,24
139.59370229611565,10,1,7,8,25
141.51460564674295,10,1,7,8,26
139.62283262724236,10,1,7,8,27
141.53565182074504,10,1,7,8,28
139.62283262724236,10,1,7,8,29
141.51460564674295,10,1,7,8,30
139.8108136381568,10,1,7,8,31
137.89566849493556,10,1,7,8,32
141.51460564674295,10,1,7,8,33
141.51460564674295,10,1,7,8,34
141.51460564674295,10,1,7,8,35
141.51460564674295,10,1,7,8,36
141.51460564674295,10,1,7,8,37
141.48508062390687,10,1,7,8,38
141.48508062390687,10,1,7,8,39
141.51460564674295,10,1,7,8,40
141.48508062390687,10,1,7,8,41
141.48508062390687,10,1,7,8,42
141.51460564674295,10,1,7,8,43
141.51460564674295,10,1,7,8,44
139.62283262724236,10,1,7,8,45
141.51460564674295,10,1,7,8,46
139.62283262724236,10,1,7,8,47
139.62283262724236,10,1,7,8,48
141.51460564674295,10,1,7,8,49
141.51460564674295,10,1,7,8,50
139.62283262724236,10,1,7,8,51
141.51460564674295,10,1,7,8,52
141.51460564674295,10,1,7,8,53
141.51460564674295,10,1,7,8,54
144.9630902406975,10,1,8,2,56
144.9630902406975,10,1,8,2,57
130.60776585605973,10,1,8,2,58
126.97224792304088,10,1,8,2,59
134.20482670412594,10,1,8,2,60
128.6911140194204,10,1,8,2,61
143.0753290822886,10,1,8,2,62
127.2568273416125,10,1,8,2,63
137.70744967190055,10,1,8,2,64
132.337461819414,10,1,8,2,65
134.2129080888332,10,1,8,2,66
143.08394462023034,10,1,8,2,67
125.60344769757087,10,1,8,2,68
132.19898594484502,10,1,8,2,69
127.21903437031611,10,1,8,2,70
139.4414422323751,10,1,8,2,71
127.19250009885214,10,1,8,2,72
139.41235871433213,10,1,8,2,73
125.58479398974137,10,1,8,2,74
139.4414422323751,10,1,8,2,75
135.8202055003786,10,1,8,2,76
135.8202055003786,10,1,8,2,77
134.0263795618177,10,1,8,2,78
132.2509278551268,10,1,8,2,79
130.5768510647865,10,1,8,2,80
130.55745594249808,10,1,8,2,81
135.91673728619685,10,1,8,2,82
135.8965490084186,10,1,8,2,83
139.3916598525426,10,1,8,2,84
130.5768510647865,10,1,8,2,85
139.4123587143321,10,1,8,2,86
130.55745594249808,10,1,8,2,87
125.56614035843432,10,1,8,2,88
134.17304352643177,10,1,8,2,89
127.20013799849438,10,1,8,2,90
139.4414422323751,10,1,8,2,91
132.29815999175995,10,1,8,2,92
134.17304352643177,10,1,8,2,93
152.27746742782992,10,1,8,2,94
132.29815999175995,10,1,8,2,95
130.55745594249808,10,1,8,2,96
135.8202055003786,10,1,8,2,97
135.80003156086755,10,1,8,2,98
139.5147430562923,10,1,8,2,99
130.55745594249808,10,1,8,2,100
130.55745594249808,10,1,8,2,101
134.17304352643177,10,1,8,2,102
130.55745594249808,10,1,8,2,103
139.4207304155246,10,1,8,2,104
127.20013799849438,10,1,8,2,105
125.56614035843432,10,1,8,2,106
127.20013799849438,10,1,8,2,107
127.20013799849438,10,1,8,2,108
135.80003156086755,10,1,8,2,109
137.64610486999524,10,1,8,2,110
130.55745594249808,10,1,8,2,111
141.21948053844227,10,1,8,2,112
137.66655305518088,10,1,8,2,113
130.55745594249808,10,1,8,2,114
135.75155471171166,10,1,8,2,115
134.15311137304758,10,1,8,2,116
133.95755279769367,10,1,8,2,117
139.37096107718293,10,1,8,2,118
133.9296296553105,10,1,8,2,119
132.2785091963039,10,1,8,2,120
134.12514746693117,10,1,8,2,121
127.1547310730947,10,1,8,2,122
130.53023345747434,10,1,8,2,123
134.15311137304758,10,1,8,2,124
142.99038330677044,10,1,8,2,125
127.1547310730947,10,1,8,2,126
130.55745594249808,10,1,8,2,127
137.64610486999524,10,1,8,2,128
150.37013927588765,10,1,8,2,129
139.4207304155246,10,1,8,2,130
137.64610486999524,10,1,8,2,131
130.55745594249808,10,1,8,2,132
130.55745594249808,10,1,8,2,133
125.25248589596681,10,1,8,2,134
126.9421776072626,10,1,8,2,135
130.53806090479975,10,1,8,2,136
137.59846821694376,10,1,8,2,137
128.86429427653903,10,1,8,2,138
130.55745594249808,10,1,8,2,139
135.7798577093434,10,1,8,2,140
135.7798577093434,10,1,8,2,141
130.51085054760125,10,1,8,2,142
139.4000186890068,10,1,8,2,143
130.55745594249808,10,1,8,2,144
134.12514746693117,10,1,8,2,145
127.20013799849438,10,1,8,2,146
134.12514746693117,10,1,8,2,147
134.17304352643177,10,1,8,2,148
130.51085054760125,10,1,8,2,149
130.53806090479975,10,1,8,2,150
132.258858486553,10,1,8,2,151
132.2785091963039,10,1,8,2,152
127.18124170908754,10,1,8,2,153
132.258858486553,10,1,8,2,154
132.23128943307427,10,1,8,3,156
132.23128943307427,10,1,8,3,157
130.38735306824586,10,1,8,3,158
130.38735306824586,10,1,8,3,159
130.36017412574765,10,1,8,3,160
130.36017412574765,10,1,8,3,161
132.258858486553,10,1,8,3,162
130.38735306824586,10,1,8,3,163
130.38735306824586,10,1,8,3,164
130.36017412574765,10,1,8,3,165
130.36017412574765,10,1,8,3,166
130.38735306824586,10,1,8,3,167
132.2785091963039,10,1,8,3,168
132.258858486553,10,1,8,3,169
130.38735306824586,10,1,8,3,170
130.36017412574765,10,1,8,3,171
132.258858486553,10,1,8,3,172
132.258858486553,10,1,8,3,173
132.258858486553,10,1,8,3,174
132.23128943307427,10,1,8,3,175
130.36017412574765,10,1,8,3,176
130.38735306824586,10,1,8,3,177
130.38735306824586,10,1,8,3,178
130.36798051187023,10,1,8,3,179
130.38735306824586,10,1,8,3,180
132.23128943307427,10,1,8,3,181
130.4067257141287,10,1,8,3,182
132.258858486553,10,1,8,3,183
132.258858486553,10,1,8,3,184
130.36017412574765,10,1,8,3,185
132.258858486553,10,1,8,3,186
130.4067257141287,10,1,8,3,187
133.95755279769367,10,1,8,3,188
130.36017412574765,10,1,8,3,189
130.38735306824586,10,1,8,3,190
130.36017412574765,10,1,8,3,191
132.23128943307427,10,1,8,3,192
132.23128943307427,10,1,8,3,193
132.23128943307427,10,1,8,3,194
132.23128943307427,10,1,8,3,195
130.3408136795423,10,1,8,3,196
133.95863802995422,10,1,8,3,197
130.36017412574765,10,1,8,3,198
130.3408136795423,10,1,8,3,199
130.36017412574765,10,1,8,3,200
133.95863802995422,10,1,8,3,201
132.23128943307427,10,1,8,3,202
130.3408136795423,10,1,8,3,203
130.3408136795423,10,1,8,3,204
130.49146772368135,10,1,8,3,205
132.23128943307427,10,1,8,3,206
130.36017412574765,10,1,8,3,207
132.13216551402144,10,1,8,3,208
130.3408136795423,10,1,8,3,209
132.23128943307427,10,1,8,3,210
130.3408136795423,10,1,8,3,211
132.21165109810812,10,1,8,3,212
130.3408136795423,10,1,8,3,213
132.11254190044784,10,1,8,3,214
132.23920786759408,10,1,8,3,215
130.3408136795423,10,1,8,3,216
132.21165109810812,10,1,8,3,217
132.21165109810812,10,1,8,3,218
130.3408136795423,10,1,8,3,219
132.21165109810812,10,1,8,3,220
132.23128943307427,10,1,8,3,221
132.21165109810812,10,1,8,3,222
132.21165109810812,10,1,8,3,223
130.3408136795423,10,1,8,3,224
130.3408136795423,10,1,8,3,225
132.21165109810812,10,1,8,3,226
132.21165109810812,10,1,8,3,227
132.21165109810812,10,1,8,3,228
130.3408136795423,10,1,8,3,229
132.23920786759408,10,1,8,3,230
132.21165109810812,10,1,8,3,231
130.36798051187023,10,1,8,3,232
130.36017412574765,10,1,8,3,233
130.38735306824586,10,1,8,3,234
132.21165109810812,10,1,8,3,235
130.3408136795423,10,1,8,3,236
132.23920786759408,10,1,8,3,237
130.36798051187023,10,1,8,3,238
130.3408136795423,10,1,8,3,239
132.258858486553,10,1,8,3,240
130.3408136795423,10,1,8,3,241
130.36798051187023,10,1,8,3,242
130.36798051187023,10,1,8,3,243
130.3408136795423,10,1,8,3,244
132.23920786759408,10,1,8,3,245
130.3408136795423,10,1,8,3,246
132.14007801268247,10,1,8,3,247
130.36798051187023,10,1,8,3,248
133.98655892253967,10,1,8,3,249
130.3408136795423,10,1,8,3,250
130.36798051187023,10,1,8,3,251
133.98655892253967,10,1,8,3,252
130.38735306824586,10,1,8,3,253
132.23920786759408,10,1,8,3,254
134.08530835768855,10,1,8,4,0
134.10522786556726,10,1,8,4,1
134.11324734771048,10,1,8,4,2
134.08530835768855,10,1,8,4,3
134.10522786556726,10,1,8,4,4
134.10522786556726,10,1,8,4,5
134.10522786556726,10,1,8,4,6
134.10522786556726,10,1,8,4,7
134.13317931175573,10,1,8,4,8
134.10522786556726,10,1,8,4,9
134.10522786556726,10,1,8,4,10
135.80768684694777,10,1,8,4,11
134.10522786556726,10,1,8,4,12
134.08530835768855,10,1,8,4,13
134.10522786556726,10,1,8,4,14
139.4442275171644,10,1,8,4,15
134.10522786556726,10,1,8,4,16
134.10522786556726,10,1,8,4,17
134.10522786556726,10,1,8,4,18
135.8561727222361,10,1,8,4,19
134.13317931175573,10,1,8,4,20
135.8561727222361,10,1,8,4,21
134.13317931175573,10,1,8,4,22
134.13317931175573,10,1,8,4,23
134.13317931175573,10,1,8,4,24
134.13317931175573,10,1,8,4,25
134.10522786556726,10,1,8,4,26
134.13317931175573,10,1,8,4,27
134.13317931175573,10,1,8,4,28
134.13317931175573,10,1,8,4,29
134.08530835768855,10,1,8,4,30
134.08530835768855,10,1,8,4,31
134.10522786556726,10,1,8,4,32
135.80768684694777,10,1,8,4,33
134.10522786556726,10,1,8,4,34
134.08530835768855,10,1,8,4,35
134.08530835768855,10,1,8,4,36
134.10522786556726,10,1,8,4,37
134.10522786556726,10,1,8,4,38
134.10522786556726,10,1,8,4,39
134.08530835768855,10,1,8,4,40
134.11324734771048,10,1,8,4,41
135.8561727222361,10,1,8,4,42
134.08530835768855,10,1,8,4,43
134.11324734771048,10,1,8,4,44
134.10522786556726,10,1,8,4,45
134.13317931175573,10,1,8,4,46
132.23920786759408,10,1,8,4,47
134.10522786556726,10,1,8,4,48
134.11324734771048,10,1,8,4,49
134.13317931175573,10,1,8,4,50
135.83598472427823,10,1,8,4,51
134.13317931175573,10,1,8,4,52
134.08530835768855,10,1,8,4,53
134.08530835768855,10,1,8,4,54
135.80768684694777,10,1,8,4,55
135.83598472427823,10,1,8,4,56
134.10522786556726,10,1,8,4,57
134.13317931175573,10,1,8,4,58
134.11324734771048,10,1,8,4,59
134.10522786556726,10,1,8,4,60
134.11324734771048,10,1,8,4,61
134.13317931175573,10,1,8,4,62
134.08530835768855,10,1,8,4,63
134.08530835768855,10,1,8,4,64
134.08530835768855,10,1,8,4,65
134.11324734771048,10,1,8,4,66
134.13317931175573,10,1,8,4,67
134.08530835768855,10,1,8,4,68
134.08530835768855,10,1,8,4,69
134.08530835768855,10,1,8,4,70
134.08530835768855,10,1,8,4,71
134.08530835768855,10,1,8,4,72
134.08530835768855,10,1,8,4,73
134.08530835768855,10,1,8,4,74
134.08530835768855,10,1,8,4,75
134.08530835768855,10,1,8,4,76
135.80768684694777,10,1,8,4,77
134.08530835768855,10,1,8,4,78
134.11324734771048,10,1,8,4,79
134.08530835768855,10,1,8,4,80
134.08530835768855,10,1,8,4,81
134.08530835768855,10,1,8,4,82
134.08530835768855,10,1,8,4,83
134.11324734771048,10,1,8,4,84
134.11324734771048,10,1,8,4,85
134.08530835768855,10,1,8,4,86
134.08530835768855,10,1,8,4,87
134.08530835768855,10,1,8,4,88
135.80768684694777,10,1,8,4,89
134.08530835768855,10,1,8,4,90
135.80768684694777,10,1,8,4,91
134.08530835768855,10,1,8,4,92
134.08530835768855,10,1,8,4,93
134.11324734771048,10,1,8,4,94
134.08530835768855,10,1,8,4,95
134.08530835768855,10,1,8,4,96
134.08530835768855,10,1,8,4,97
135.83598472427823,10,1,8,4,98
144.82117799157052,10,1,8,5,100
135.80768684694777,10,1,8,5,101
132.41756502915334,10,1,8,5,102
132.37031173521885,10,1,8,5,103
132.38997929022565,10,1,8,5,104
135.7875115650592,10,1,8,5,105
142.94791096203278,10,1,8,5,106
141.1525505729495,10,1,8,5,107
137.9158597232873,10,1,8,5,108
139.42351497349344,10,1,8,5,109
141.17352299128373,10,1,8,5,110
132.38997929022565,10,1,8,5,111
132.37031173521885,10,1,8,5,112
141.17352299128373,10,1,8,5,113
137.67836021913965,10,1,8,5,114
134.11324734771048,10,1,8,5,115
139.4525662710694,10,1,8,5,116
132.38997929022565,10,1,8,5,117
136.02872832562463,10,1,8,5,118
137.67836021913965,10,1,8,5,119
139.42351497349344,10,1,8,5,120
132.38997929022565,10,1,8,5,121
141.1525505729495,10,1,8,5,122
132.38997929022565,10,1,8,5,123
137.67836021913965,10,1,8,5,124
132.38997929022565,10,1,8,5,125
141.32102612232228,10,1,8,5,126
142.94791096203278,10,1,8,5,127
139.42351497349344,10,1,8,5,128
137.53566365958247,10,1,8,5,129
135.7875115650592,10,1,8,5,130
132.38997929022565,10,1,8,5,131
153.86529024966703,10,1,8,5,132
132.38997929022565,10,1,8,5,133
134.11324734771048,10,1,8,5,134
139.42351497349344,10,1,8,5,135
144.7457822925427,10,1,8,5,136
137.67836021913965,10,1,8,5,137
150.19361679217155,10,1,8,5,138
130.7227520517699,10,1,8,5,139
132.37031173521885,10,1,8,5,140
130.70333217625966,10,1,8,5,141
132.37031173521885,10,1,8,5,142
135.7875115650592,10,1,8,5,143
142.9266749446467,10,1,8,5,144
141.1525505729495,10,1,8,5,145
157.39805013213075,10,1,8,5,146
132.3978851791879,10,1,8,5,147
141.34203232334497,10,1,8,5,148
139.40280253238058,10,1,8,5,149
144.79965472119423,10,1,8,5,150
130.70333217625966,10,1,8,5,151
144.79965472119423,10,1,8,5,152
139.61956475123625,10,1,8,5,153
146.56627280170312,10,1,8,5,154
134.09331548606053,10,1,8,5,155
150.19361679217155,10,1,8,5,156
139.40280253238058,10,1,8,5,157
141.2915943274703,10,1,8,5,158
137.67836021913965,10,1,8,5,159
137.67836021913965,10,1,8,5,160
142.9266749446467,10,1,8,5,161
137.70703935800003,10,1,8,5,162
132.3978851791879,10,1,8,5,163
148.37328667966295,10,1,8,5,164
135.81579683003102,10,1,8,5,165
137.72750836979796,10,1,8,5,166
135.81579683003102,10,1,8,5,167
141.20293893325768,10,1,8,5,168
143.06929029353498,10,1,8,5,169
144.79965472119423,10,1,8,5,170
152.01473970526717,10,1,8,5,171
141.1819534042437,10,1,8,5,172
132.3978851791879,10,1,8,5,173
142.9266749446467,10,1,8,5,174
146.5750252517344,10,1,8,5,175
137.70703935800003,10,1,8,5,176
144.72427918747007,10,1,8,5,177
139.33788410503627,10,1,8,5,178
139.35859552840967,10,1,8,5,179
132.37031173521885,10,1,8,5,180
130.7305583794701,10,1,8,5,181
132.3978851791879,10,1,8,5,182
135.81579683003102,10,1,8,5,183
137.67836021913965,10,1,8,5,184
152.03522290085039,10,1,8,5,185
139.3088653232413,10,1,8,5,186
142.9266749446467,10,1,8,5,187
139.40280253238058,10,1,8,5,188
144.76949846030843,10,1,8,5,189
143.01823592453383,10,1,8,5,190
137.9158597232873,10,1,8,5,191
141.1819534042437,10,1,8,5,192
151.9604931468436,10,1,8,5,193
139.59048730607586,10,1,8,5,194
146.52272580910864,10,1,8,5,195
157.62393772986633,10,1,8,5,196
136.00851178589403,10,1,8,5,197
144.79965472119423,10,1,8,5,198
133.89894512880375,10,1,8,6,200
135.67091071106307,10,1,8,6,201
135.71933673488667,10,1,8,6,202
133.89894512880375,10,1,8,6,203
135.69107155888395,10,1,8,6,204
135.69107155888395,10,1,8,6,205
133.89894512880375,10,1,8,6,206
135.69916328747706,10,1,8,6,207
135.69107155888395,10,1,8,6,208
133.91884266057355,10,1,8,6,209
137.56431307398628,10,1,8,6,210
137.53566365958247,10,1,8,6,211
133.89894512880375,10,1,8,6,212
135.67091071106307,10,1,8,6,213
135.67091071106307,10,1,8,6,214
135.67091071106307,10,1,8,6,215
137.5438653875917,10,1,8,6,216
135.67091071106307,10,1,8,6,217
135.69107155888395,10,1,8,6,218
137.53566365958247,10,1,8,6,219
133.89894512880375,10,1,8,6,220
135.67091071106307,10,1,8,6,221
135.69916328747706,10,1,8,6,222
135.67091071106307,10,1,8,6,223
135.69107155888395,10,1,8,6,224
137.51522874405617,10,1,8,6,225
137.51522874405617,10,1,8,6,226
135.67091071106307,10,1,8,6,227
135.67091071106307,10,1,8,6,228
133.94673867181726,10,1,8,6,229
133.89894512880375,10,1,8,6,230
133.91884266057355,10,1,8,6,231
135.67091071106307,10,1,8,6,232
133.89894512880375,10,1,8,6,233
133.92682870501892,10,1,8,6,234
133.89894512880375,10,1,8,6,235
135.76733638827577,10,1,8,6,236
135.67091071106307,10,1,8,6,237
133.89894512880375,10,1,8,6,238
133.89894512880375,10,1,8,6,239
137.51522874405617,10,1,8,6,240
133.89894512880375,10,1,8,6,241
135.67091071106307,10,1,8,6,242
133.92682870501892,10,1,8,6,243
133.91884266057355,10,1,8,6,244
135.76733638827577,10,1,8,6,245
133.92682870501892,10,1,8,6,246
133.94673867181726,10,1,8,6,247
135.71933673488667,10,1,8,6,248
133.94673867181726,10,1,8,6,249
137.56431307398628,10,1,8,6,250
135.81579683003102,10,1,8,6,251
133.94673867181726,10,1,8,6,252
135.69916328747706,10,1,8,6,253
135.69916328747706,10,1,8,6,254
133.94673867181726,10,1,8,6,255
135.71933673488667,10,1,8,6,0
133.92682870501892,10,1,8,6,1
135.69916328747706,10,1,8,6,2
135.67091071106307,10,1,8,6,3
135.69916328747706,10,1,8,6,4
135.67091071106307,10,1,8,6,5
133.90691885077416,10,1,8,6,6
137.5438653875917,10,1,8,6,7
135.67091071106307,10,1,8,6,8
135.69916328747706,10,1,8,6,9
135.69916328747706,10,1,8,6,10
133.89894512880375,10,1,8,6,11
135.69916328747706,10,1,8,6,12
133.89894512880375,10,1,8,6,13
135.69916328747706,10,1,8,6,14
133.92682870501892,10,1,8,6,15
133.89894512880375,10,1,8,6,16
135.67091071106307,10,1,8,6,17
135.67091071106307,10,1,8,6,18
135.7875115650592,10,1,8,6,19
135.67091071106307,10,1,8,6,20
137.5438653875917,10,1,8,6,21
135.67091071106307,10,1,8,6,22
137.49479394025647,10,1,8,6,23
135.65074997347043,10,1,8,6,24
135.76733638827577,10,1,8,6,25
135.67091071106307,10,1,8,6,26
133.92682870501892,10,1,8,6,27
133.89894512880375,10,1,8,6,28
137.49479394025647,10,1,8,6,29
135.76733638827577,10,1,8,6,30
133.87904770582236,10,1,8,6,31
135.65074997347043,10,1,8,6,32
135.67091071106307,10,1,8,6,33
135.7754213735009,10,1,8,6,34
135.67091071106307,10,1,8,6,35
135.65074997347043,10,1,8,6,36
135.69916328747706,10,1,8,6,37
133.89894512880375,10,1,8,6,38
137.51522874405617,10,1,8,6,39
135.67091071106307,10,1,8,6,40
135.67091071106307,10,1,8,6,41
133.89894512880375,10,1,8,6,42
201.80057735378935,10,1,8,7,44
200.61307422594578,10,1,8,7,45
