BIOZ1_MAG,BIOZ1_PHASE,EXC_FREQ_KHZ,EXC_PIN,GND_PIN,SNS_AP_PIN,SNS_AN_PIN,PACKET_NUMBER
4.551879,-0.044913,10,4,12,5,6,210
2.726765,-0.040962,10,4,12,6,7,214
2.322024,-0.043601,10,4,12,7,8,218
2.100737,-0.041696,10,4,12,8,9,222
2.879226,-0.063364,10,4,12,9,10,226
4.017543,-0.044386,10,4,12,10,11,230
4.163897,3.103883,10,4,12,13,14,234
2.635848,3.098431,10,4,12,14,15,238
2.117365,3.117803,10,4,12,15,16,242
2.246509,3.11211,10,5,13,1,2,246
2.651544,3.112678,10,5,13,2,3,250
4.585142,3.113067,10,5,13,3,4,254
4.315533,-0.05292,10,5,13,6,7,2
2.673219,-0.049139,10,5,13,7,8,6
2.062827,-0.033715,10,5,13,8,9,10
2.397988,-0.056966,10,5,13,9,10,14
2.451771,-0.047848,10,5,13,10,11,18
4.184783,-0.050506,10,5,13,11,12,22
4.163272,3.104027,10,5,13,14,15,26
2.522004,3.117718,10,5,13,15,16,30
2.209441,3.11979,10,6,14,1,2,34
2.192523,3.102761,10,6,14,2,3,38
2.743786,3.114603,10,6,14,3,4,42
3.829839,3.118278,10,6,14,4,5,46
4.239576,-0.045229,10,6,14,7,8,50
2.452048,-0.047611,10,6,14,8,9,54
2.383052,-0.07286,10,6,14,9,10,58
2.046951,-0.051964,10,6,14,10,11,62
2.581702,-0.051411,10,6,14,11,12,66
4.186263,-0.050529,10,6,14,12,13,70
4.16425,3.104061,10,6,14,15,16,74
2.614628,3.119558,10,7,15,1,2,78
2.155025,3.110518,10,7,15,2,3,82
2.247425,3.112354,10,7,15,3,4,86
2.33946,3.11411,10,7,15,4,5,90
4.052032,3.115924,10,7,15,5,6,94
4.035384,-0.035044,10,7,15,8,9,98
2.804012,-0.052488,10,7,15,9,10,102
2.047258,-0.052108,10,7,15,10,11,106
2.177236,-0.0564,10,7,15,11,12,110
2.712263,-0.054936,10,7,15,12,13,114
4.149285,-0.046842,10,7,15,13,14,118
4.255946,3.10539,10,8,16,1,2,122
2.560219,3.111056,10,8,16,2,3,126
2.247171,3.112116,10,8,16,3,4,130
1.988023,3.124293,10,8,16,4,5,134
2.522382,3.117574,10,8,16,5,6,138
4.088459,3.111833,10,8,16,6,7,142
4.498728,-0.049782,10,8,16,9,10,146
2.452131,-0.047845,10,8,16,10,11,150
2.176786,-0.056375,10,8,16,11,12,154
2.291838,-0.076722,10,8,16,12,13,158
2.619909,-0.057443,10,8,16,13,14,162
4.201081,-0.041433,10,8,16,14,15,166
4.070528,3.102549,10,9,1,2,3,170
2.651387,3.112706,10,9,1,3,4,174
1.987618,3.124172,10,9,1,4,5,178
2.154538,3.110042,10,9,1,5,6,182
2.576265,3.125521,10,9,1,6,7,186
4.401049,3.111025,10,9,1,7,8,190
3.979701,-0.040514,10,9,1,10,11,194
2.635542,-0.043252,10,9,1,11,12,198
2.306585,-0.060081,10,9,1,12,13,202
2.230125,-0.046186,10,9,1,13,14,206
2.634677,-0.043023,10,9,1,14,15,210
4.292492,-0.040152,10,9,1,15,16,214
4.253082,3.1052,10,10,2,3,4,218
2.375681,3.107038,10,10,2,4,5,222
2.208211,3.11969,10,10,2,5,6,226
2.208079,3.119719,10,10,2,6,7,230
2.651072,3.112763,10,10,2,7,8,234
3.920136,3.119048,10,10,2,8,9,238
4.292638,-0.040386,10,10,2,11,12,242
2.710829,-0.054976,10,10,2,12,13,246
2.229867,-0.046276,10,10,2,13,14,250
2.176269,-0.056262,10,10,2,14,15,254
2.672976,-0.049023,10,10,2,15,16,2
4.330093,-0.044,10,11,3,1,2,6
3.81191,3.108158,10,11,3,4,5,10
2.650914,3.112791,10,11,3,5,6,14
2.28374,3.104885,10,11,3,6,7,18
2.246313,3.112079,10,11,3,7,8,22
2.484298,3.124287,10,11,3,8,9,26
4.514284,3.100191,10,11,3,9,10,30
4.238965,-0.045379,10,11,3,12,13,34
2.597331,-0.036931,10,11,3,13,14,38
2.192015,-0.039013,10,11,3,14,15,42
2.22993,-0.046217,10,11,3,15,16,46
2.672047,-0.049294,10,12,4,1,2,50
4.10727,-0.043079,10,12,4,2,3,54
4.528437,3.108327,10,12,4,5,6,58
2.704489,3.120477,10,12,4,6,7,62
2.245455,3.112042,10,12,4,7,8,66
2.078656,3.125859,10,12,4,8,9,70
2.817564,3.102487,10,12,4,9,10,74
4.032063,3.106503,10,12,4,10,11,78
4.162802,-0.037803,10,12,4,13,14,82
2.580723,-0.051595,10,12,4,14,15,86
2.191761,-0.039103,10,12,4,15,16,90
2.267627,-0.053181,10,13,5,1,2,94
2.672349,-0.049057,10,13,5,2,3,98
4.588163,-0.048223,10,13,5,3,4,102
4.178462,3.11306,10,13,5,6,7,106
2.634595,3.098657,10,13,5,7,8,110
2.041563,3.13446,10,13,5,8,9,114
2.413088,3.100546,10,13,5,9,10,118
2.46698,3.109229,10,13,5,10,11,122
4.177966,3.113116,10,13,5,11,12,126
4.146093,-0.046621,10,13,5,14,15,130
2.63452,-0.042995,10,13,5,15,16,134
2.267634,-0.053329,10,14,6,1,2,138
2.229804,-0.046336,10,14,6,2,3,142
2.710752,-0.055035,10,14,6,3,4,146
3.833355,-0.047523,10,14,6,4,5,150
4.216495,3.10901,10,14,6,7,8,154
2.446846,3.131329,10,14,6,8,9,158
2.41302,3.100487,10,14,6,9,10,162
2.024881,3.115972,10,14,6,10,11,166
2.559162,3.111106,10,14,6,11,12,170
4.162542,3.103965,10,14,6,12,13,174
4.200214,-0.041408,10,14,6,15,16,178
2.634669,-0.042876,10,15,7,1,2,182
2.17633,-0.056202,10,15,7,2,3,186
2.229986,-0.046011,10,15,7,3,4,190
2.283727,-0.036414,10,15,7,4,5,194
4.071345,-0.038775,10,15,7,5,6,198
3.995993,3.110985,10,15,7,8,9,202
2.802758,3.08939,10,15,7,9,10,206
2.025592,3.116097,10,15,7,10,11,210
2.154843,3.110339,10,15,7,11,12,214
2.635213,3.098691,10,15,7,12,13,218
4.125888,3.107997,10,15,7,13,14,222
4.292237,-0.040123,10,16,8,1,2,226
2.581168,-0.051386,10,16,8,2,3,230
2.229923,-0.04607,10,16,8,3,4,234
1.955123,-0.055464,10,16,8,4,5,238
2.543443,-0.045173,10,16,8,5,6,242
4.315251,-0.052598,10,16,8,6,7,246
4.498053,3.091954,10,16,8,9,10,250
2.468138,3.109297,10,16,8,10,11,254
2.192132,3.102846,10,16,8,11,12,2
2.230321,3.095438,10,16,8,12,13,6
2.597169,3.104837,10,16,8,13,14,10
4.200332,3.100244,10,16,8,14,15,14
4.110395,-0.042858,10,1,9,2,3,18
2.673839,-0.048957,10,1,9,3,4,22
1.955643,-0.055518,10,1,9,4,5,26
2.177229,-0.056253,10,1,9,5,6,30
2.635683,-0.042986,10,1,9,6,7,34
4.369528,-0.04754,10,1,9,7,8,38
3.942582,3.105532,10,1,9,10,11,42
2.614881,3.119147,10,1,9,11,12,46
2.231375,3.095359,10,1,9,12,13,50
2.209835,3.119705,10,1,9,13,14,54
2.560668,3.111118,10,1,9,14,15,58
4.273307,3.114057,10,1,9,15,16,62
4.293633,-0.040205,10,2,10,3,4,66
2.360154,-0.050213,10,2,10,4,5,70
2.230447,-0.046036,10,2,10,5,6,74
2.139071,-0.048957,10,2,10,6,7,78
2.635758,-0.042927,10,2,10,7,8,82
3.926691,-0.045706,10,2,10,8,9,86
4.293997,3.101566,10,2,10,11,12,90
2.635601,3.098694,10,2,10,12,13,94
2.209241,3.119906,10,2,10,13,14,98
2.154721,3.11022,10,2,10,14,15,102
2.651371,3.113001,10,2,10,15,16,106
4.309685,3.110339,10,3,11,1,2,110
3.888805,-0.041606,10,3,11,4,5,114
2.673445,-0.04896,10,3,11,5,6,118
2.230251,-0.046067,10,3,11,6,7,122
2.230384,-0.046095,10,3,11,7,8,126
2.452124,-0.047698,10,3,11,8,9,130
4.483744,-0.058103,10,3,11,9,10,134
4.164132,3.104002,10,3,11,12,13,138
2.560516,3.111146,10,3,11,13,14,142
2.193106,3.102708,10,3,11,14,15,146
2.209441,3.11979,10,3,11,15,16,150
2.652009,3.112741,10,4,12,1,2,154
4.088945,3.111776,10,4,12,2,3,158
4.553361,-0.044994,10,4,12,5,6,162
2.727328,-0.040987,10,4,12,6,7,166
2.230593,-0.046358,10,4,12,7,8,170
2.063014,-0.033831,10,4,12,8,9,174
2.841338,-0.058104,10,4,12,9,10,178
4.05593,-0.04824,10,4,12,10,11,182
4.125655,3.107878,10,4,12,13,14,186
2.559994,3.111024,10,4,12,14,15,190
2.209185,3.119699,10,4,12,15,16,194
2.246306,3.112226,10,5,13,1,2,198
2.688909,3.106568,10,5,13,2,3,202
4.622525,3.109504,10,5,13,3,4,206
4.201343,-0.041609,10,5,13,6,7,210
2.581176,-0.051533,10,5,13,7,8,214
2.062886,-0.033655,10,5,13,8,9,218
2.421795,-0.079161,10,5,13,9,10,222
2.490348,-0.054187,10,5,13,10,11,226
4.185648,-0.050532,10,5,13,11,12,230
4.109791,3.098731,10,5,13,14,15,234
2.597787,3.104724,10,5,13,15,16,238
2.193498,3.102623,10,6,14,1,2,242
2.172171,3.127578,10,6,14,2,3,246
2.690012,3.106664,10,6,14,3,4,250
3.830522,3.118193,10,6,14,4,5,254
4.24008,-0.045286,10,6,14,7,8,2
2.41444,-0.041094,10,6,14,8,9,6
2.398266,-0.056876,10,6,14,9,10,10
2.046893,-0.052023,10,6,14,10,11,14
2.543674,-0.045288,10,6,14,11,12,18
4.18515,-0.050475,10,6,14,12,13,22
4.218224,3.109107,10,6,14,15,16,26
2.652451,3.113244,10,7,15,1,2,30
2.155605,3.110317,10,7,15,2,3,34
2.247228,3.112323,10,7,15,3,4,38
2.338977,3.114136,10,7,15,4,5,42
4.051677,3.115893,10,7,15,5,6,46
3.981097,-0.040389,10,7,15,8,9,50
2.841668,-0.058013,10,7,15,9,10,54
2.063557,-0.033737,10,7,15,10,11,58
2.139646,-0.049158,10,7,15,11,12,62
2.658845,-0.063415,10,7,15,12,13,66
4.165853,-0.037642,10,7,15,13,14,70
4.256572,3.105393,10,8,16,1,2,74
2.597559,3.104693,10,8,16,2,3,78
2.209579,3.119614,10,8,16,3,4,82
1.933949,3.113733,10,8,16,4,5,86
2.522532,3.117546,10,8,16,5,6,90
4.256091,3.105155,10,8,16,6,7,94
4.537938,-0.053317,10,8,16,9,10,98
2.490426,-0.054275,10,8,16,10,11,102
2.176915,-0.056403,10,8,16,11,12,106
2.268834,-0.053289,10,8,16,12,13,110
2.582162,-0.051496,10,8,16,13,14,114
4.240956,-0.045311,10,8,16,14,15,118
4.087869,3.111683,10,9,1,2,3,122
2.635467,3.098281,10,9,1,3,4,126
1.933555,3.113611,10,9,1,4,5,130
2.15505,3.109929,10,9,1,5,6,134
2.818975,3.102467,10,9,1,6,7,138
4.347558,3.106165,10,9,1,7,8,142
4.018384,-0.044559,10,9,1,10,11,146
2.581709,-0.051558,10,9,1,11,12,150
2.268237,-0.053382,10,9,1,12,13,154
2.192337,-0.03901,10,9,1,13,14,158
2.619302,-0.057624,10,9,1,14,15,162
4.330472,-0.043969,10,9,1,15,16,166
4.291363,3.101347,10,10,2,3,4,170
2.337462,3.114152,10,10,2,4,5,174
2.208079,3.119719,10,10,2,5,6,178
2.412808,3.100456,10,10,2,6,7,182
2.650367,3.112817,10,10,2,7,8,186
3.956639,3.114852,10,10,2,8,9,190
4.291108,-0.040217,10,10,2,11,12,194
2.656807,-0.063342,10,10,2,12,13,198
2.229533,-0.046132,10,10,2,13,14,202
2.22947,-0.046192,10,10,2,14,15,206
2.672349,-0.049057,10,10,2,15,16,210
4.313616,-0.052782,10,11,3,1,2,214
3.848624,3.103948,10,11,3,4,5,218
2.650839,3.112732,10,11,3,5,6,222
2.375117,3.107151,10,11,3,6,7,226
2.3002,3.121326,10,11,3,7,8,230
2.483785,3.124313,10,11,3,8,9,234
4.475424,3.103755,10,11,3,9,10,238
4.18405,-0.050569,10,11,3,12,13,242
2.596714,-0.036818,10,11,3,13,14,246
2.22986,-0.046129,10,11,3,14,15,250
2.229728,-0.046101,10,11,3,15,16,254
2.671888,-0.049266,10,12,4,1,2,2
4.107397,-0.043167,10,12,4,2,3,6
4.528962,3.108418,10,12,4,5,6,10
2.855563,3.096787,10,12,4,6,7,14
2.320934,3.097923,10,12,4,7,8,18
2.078903,3.125802,10,12,4,8,9,22
2.763758,3.094587,10,12,4,9,10,26
3.994379,3.110594,10,12,4,10,11,30
4.161577,-0.037809,10,12,4,13,14,34
2.580497,-0.051627,10,12,4,14,15,38
2.229407,-0.046251,10,12,4,15,16,42
2.267159,-0.053156,10,13,5,1,2,46
2.709939,-0.054747,10,13,5,2,3,50
4.62585,-0.051619,10,13,5,3,4,54
4.329064,3.097706,10,13,5,6,7,58
2.650434,3.113023,10,13,5,7,8,62
2.004265,-3.140024,10,13,5,8,9,66
2.358979,3.091252,10,13,5,9,10,70
2.46661,3.109373,10,13,5,10,11,74
4.177966,3.113116,10,13,5,11,12,78
4.107734,-0.042842,10,13,5,14,15,82
2.671873,-0.048972,10,13,5,15,16,86
2.229274,-0.046223,10,14,6,1,2,90
2.229539,-0.046279,10,14,6,2,3,94
2.710269,-0.05495,10,14,6,3,4,98
3.795793,-0.043308,10,14,6,4,5,102
4.216877,3.108894,10,14,6,7,8,106
2.392341,3.122953,10,14,6,8,9,110
2.321683,3.097988,10,14,6,9,10,114
2.062466,3.107816,10,14,6,10,11,118
2.559314,3.111078,10,14,6,11,12,122
4.239097,3.096126,10,14,6,12,13,126
4.254586,-0.036415,10,14,6,15,16,130
2.672893,-0.048935,10,15,7,1,2,134
2.176718,-0.056287,10,15,7,2,3,138
2.268423,-0.053057,10,15,7,3,4,142
2.35988,-0.050304,10,15,7,4,5,146
4.071944,-0.038772,10,15,7,5,6,150
3.959068,3.11507,10,15,7,8,9,154
2.765368,3.094892,10,15,7,9,10,158
2.100975,3.100134,10,15,7,10,11,162
2.155099,3.110283,10,15,7,11,12,166
2.635601,3.098694,10,15,7,12,13,170
4.234957,3.118069,10,15,7,13,14,174
4.330338,-0.043881,10,16,8,1,2,178
2.580789,-0.051389,10,16,8,2,3,182
2.229526,-0.045985,10,16,8,3,4,186
2.008288,-0.044126,10,16,8,4,5,190
2.542688,-0.045031,10,16,8,5,6,194
4.222411,-0.054122,10,16,8,6,7,198
4.459582,3.095551,10,16,8,9,10,202
2.504925,3.102843,10,16,8,10,11,206
2.153953,3.11039,10,16,8,11,12,210
2.229595,3.09552,10,16,8,12,13,214
2.559074,3.111341,10,16,8,13,14,218
4.179064,3.11321,10,16,8,14,15,222
4.110395,-0.042858,10,1,9,2,3,226
2.673211,-0.048992,10,1,9,3,4,230
2.031548,-0.070736,10,1,9,4,5,234
2.192976,-0.038857,10,1,9,5,6,238
2.506038,-0.038888,10,1,9,6,7,242
4.369911,-0.047509,10,1,9,7,8,246
3.997068,3.110784,10,1,9,10,11,250
2.560516,3.111146,10,1,9,11,12,254
2.247298,3.112235,10,1,9,12,13,2
2.117796,3.117925,10,1,9,13,14,6
2.652242,3.112772,10,1,9,14,15,10
4.27217,3.11411,10,1,9,15,16,14
4.330717,-0.04385,10,2,10,3,4,18
2.360294,-0.050241,10,2,10,4,5,22
2.230251,-0.046067,10,2,10,5,6,26
2.230119,-0.046039,10,2,10,6,7,30
2.673044,-0.048816,10,2,10,7,8,34
3.979903,-0.040101,10,2,10,8,9,38
4.292989,3.101532,10,2,10,11,12,42
2.635758,3.098666,10,2,10,12,13,46
2.154843,3.110339,10,2,10,13,14,50
2.284671,3.105128,10,2,10,14,15,54
2.651604,3.113032,10,2,10,15,16,58
4.309308,3.110308,10,3,11,1,2,62
3.850191,-0.037401,10,3,11,4,5,66
2.652001,-0.028705,10,3,11,5,6,70
2.398266,-0.056876,10,3,11,6,7,74
2.268423,-0.053057,10,3,11,7,8,78
2.54322,-0.045204,10,3,11,8,9,82
4.44474,-0.054598,10,3,11,9,10,86
4.23882,3.096448,10,3,11,12,13,90
2.559306,3.111225,10,3,11,13,14,94
2.192653,3.102733,10,3,11,14,15,98
2.208854,3.119843,10,3,11,15,16,102
2.651146,3.112822,10,4,12,1,2,106
4.087372,3.111886,10,4,12,2,3,110
4.568682,-0.036615,10,4,12,5,6,114
2.932344,-0.055555,10,4,12,6,7,118
2.267897,-0.053238,10,4,12,7,8,122
2.138194,-0.049054,10,4,12,8,9,126
2.787346,-0.066135,10,4,12,9,10,130
4.055219,-0.048302,10,4,12,10,11,134
4.125048,3.107875,10,4,12,13,14,138
2.597331,3.104662,10,4,12,14,15,142
2.20886,3.119696,10,4,12,15,16,146
2.246439,3.112198,10,5,13,1,2,150
2.651229,3.112735,10,5,13,2,3,154
4.584869,3.113096,10,5,13,3,4,158
4.422378,-0.042732,10,5,13,6,7,162
2.673294,-0.049079,10,5,13,7,8,166
2.100672,-0.041609,10,5,13,8,9,170
2.306174,-0.059996,10,5,13,9,10,174
2.527325,-0.06023,10,5,13,10,11,178
4.184665,-0.050566,10,5,13,11,12,182
4.16339,3.104086,10,5,13,14,15,186
2.613875,3.119257,10,5,13,15,16,190
2.192976,3.102736,10,6,14,1,2,194
2.171852,3.127575,10,6,14,2,3,198
2.652001,3.112888,10,6,14,3,4,202
3.829839,3.118278,10,6,14,4,5,206
4.20145,-0.041402,10,6,14,7,8,210
2.451833,-0.047642,10,6,14,8,9,214
2.345045,-0.066559,10,6,14,9,10,218
2.138944,-0.048929,10,6,14,10,11,222
2.581702,-0.051411,10,6,14,11,12,226
4.261983,-0.057809,10,6,14,12,13,230
4.20145,3.100191,10,6,14,15,16,234
2.597764,3.105166,10,7,15,1,2,238
2.155349,3.110373,10,7,15,2,3,242
2.171981,3.127547,10,7,15,3,4,246
2.30128,3.121394,10,7,15,4,5,250
4.051677,3.115893,10,7,15,5,6,254
3.980861,-0.040361,10,7,15,8,9,2
2.804012,-0.052488,10,7,15,9,10,6
2.13901,-0.049017,10,7,15,10,11,10
2.177236,-0.0564,10,7,15,11,12,14
2.52852,-0.060309,10,7,15,12,13,18
4.240212,-0.045373,10,7,15,13,14,22
4.293608,3.101682,10,8,16,1,2,26
2.596942,3.104806,10,8,16,2,3,30
2.171729,3.127456,10,8,16,3,4,34
1.987787,3.12435,10,8,16,4,5,38
2.522382,3.117574,10,8,16,5,6,42
4.218105,3.109047,10,8,16,6,7,46
4.461311,-0.046299,10,8,16,9,10,50
2.543753,-0.045376,10,8,16,10,11,54
2.230656,-0.046299,10,8,16,11,12,58
2.085277,-0.059698,10,8,16,12,13,62
2.544199,-0.045314,10,8,16,13,14,66
4.240332,-0.045314,10,8,16,14,15,70
4.071011,3.102492,10,9,1,2,3,74
2.613653,3.119079,10,9,1,3,4,78
1.970778,3.105291,10,9,1,4,5,82
2.154605,3.109954,10,9,1,5,6,86
2.67275,3.092392,10,9,1,6,7,90
4.346402,3.106219,10,9,1,7,8,94
3.97969,-0.040367,10,9,1,10,11,98
2.619532,-0.057593,10,9,1,11,12,102
2.084788,-0.059732,10,9,1,12,13,106
2.137946,-0.049144,10,9,1,13,14,110
2.672349,-0.049057,10,9,1,14,15,114
4.330485,-0.044116,10,9,1,15,16,118
4.291108,3.101376,10,10,2,3,4,122
2.374908,3.10712,10,10,2,4,5,126
2.153838,3.110124,10,10,2,5,6,130
2.26723,3.088349,10,10,2,6,7,134
2.650524,3.112788,10,10,2,7,8,138
4.010691,3.120097,10,10,2,8,9,142
4.329199,-0.043975,10,10,2,11,12,146
2.618376,-0.057601,10,10,2,12,13,150
2.137686,-0.048941,10,10,2,13,14,154
2.2294,-0.046104,10,10,2,14,15,158
2.634207,-0.042939,10,10,2,15,16,162
4.313751,-0.05287,10,11,3,1,2,166
3.811457,3.108215,10,11,3,4,5,170
2.613113,3.119105,10,11,3,5,6,174
2.321276,3.097926,10,11,3,6,7,178
2.283469,3.104941,10,11,3,7,8,182
2.521569,3.117509,10,11,3,8,9,186
4.475551,3.103815,10,11,3,9,10,190
4.276013,-0.049085,10,11,3,12,13,194
2.543077,-0.045323,10,11,3,13,14,198
2.229734,-0.046248,10,11,3,14,15,202
2.230258,-0.046214,10,11,3,15,16,206
2.672123,-0.049235,10,12,4,1,2,210
4.108001,-0.043164,10,12,4,2,3,214
4.566551,3.104763,10,12,4,5,6,218
2.725894,3.100419,10,12,4,6,7,222
2.283405,3.104882,10,12,4,7,8,226
2.133219,3.135386,10,12,4,8,9,230
2.764,3.094618,10,12,4,9,10,234
4.03277,3.106565,10,12,4,10,11,238
4.199739,-0.041646,10,12,4,13,14,242
2.672508,-0.049085,10,12,4,14,15,246
2.229741,-0.046395,10,12,4,15,16,250
2.267493,-0.053153,10,13,5,1,2,254
2.672341,-0.04891,10,13,5,2,3,2
4.626674,-0.051703,10,13,5,3,4,6
4.329309,3.097824,10,13,5,6,7,10
2.650906,3.112938,10,13,5,7,8,14
2.078826,3.126184,10,13,5,8,9,18
2.321269,3.098073,10,13,5,9,10,22
2.504933,3.102696,10,13,5,10,11,26
4.216363,3.109098,10,13,5,11,12,30
4.200095,-0.041467,10,13,5,14,15,34
2.634207,-0.042939,10,13,5,15,16,38
2.229671,-0.046308,10,14,6,1,2,42
2.214013,-0.063489,10,14,6,2,3,46
2.672825,-0.049142,10,14,6,3,4,50
3.887563,-0.041819,10,14,6,4,5,54
4.179455,3.112947,10,14,6,7,8,58
2.48415,3.124316,10,14,6,8,9,62
2.283605,3.104913,10,14,6,9,10,66
2.100048,3.100125,10,14,6,10,11,70
2.558785,3.111103,10,14,6,11,12,74
4.276387,3.092539,10,14,6,12,13,78
4.275879,-0.048997,10,14,6,15,16,82
2.634982,-0.042933,10,15,7,1,2,86
2.17633,-0.056202,10,15,7,2,3,90
2.17665,-0.056199,10,15,7,3,4,94
2.268295,-0.053176,10,15,7,4,5,98
4.071944,-0.038772,10,15,7,5,6,102
4.033819,3.106805,10,15,7,8,9,106
2.765118,3.095008,10,15,7,9,10,110
2.117227,3.118126,10,15,7,10,11,114
2.209047,3.119874,10,15,7,11,12,118
2.597706,3.104812,10,15,7,12,13,122
4.217842,3.109223,10,15,7,13,14,126
4.291605,-0.040126,10,16,8,1,2,130
2.580636,-0.051361,10,16,8,2,3,134
2.17601,-0.056205,10,16,8,3,4,138
1.916666,-0.047228,10,16,8,4,5,142
2.505223,-0.038806,10,16,8,5,6,146
4.238952,-0.045232,10,16,8,6,7,150
4.459847,3.095523,10,16,8,9,10,154
2.522004,3.117718,10,16,8,10,11,158
2.246166,3.112402,10,16,8,11,12,162
2.19207,3.102787,10,16,8,12,13,166
2.559154,3.111253,10,16,8,13,14,170
4.216733,3.109129,10,16,8,14,15,174
4.110267,-0.042771,10,1,9,2,3,178
2.598088,-0.036778,10,1,9,3,4,182
1.9178,-0.047364,10,1,9,4,5,186
2.177427,-0.056369,10,1,9,5,6,190
2.620451,-0.057468,10,1,9,6,7,194
4.332764,-0.043929,10,1,9,7,8,198
3.9805,3.101348,10,1,9,10,11,202
2.598323,3.104699,10,1,9,11,12,206
2.193106,3.102708,10,1,9,12,13,210
2.134909,3.135519,10,1,9,13,14,214
2.540167,3.132517,10,1,9,14,15,218
4.311101,3.11011,10,1,9,15,16,222
4.293633,-0.040205,10,2,10,3,4,226
2.322359,-0.043451,10,2,10,4,5,230
2.192715,-0.0388,10,2,10,5,6,234
2.268827,-0.053142,10,2,10,6,7,238
2.673998,-0.048986,10,2,10,7,8,242
4.018122,-0.044236,10,2,10,8,9,246
4.347533,3.10646,10,2,10,11,12,250
2.635601,3.098694,10,2,10,12,13,254
2.117418,3.11801,10,2,10,13,14,2
2.117418,3.11801,10,2,10,14,15,6
2.576783,3.12579,10,2,10,15,16,10
4.310076,3.110223,10,3,11,1,2,14
3.888927,-0.041694,10,3,11,4,5,18
2.636228,-0.043012,10,3,11,5,6,22
2.436909,-0.06327,10,3,11,6,7,26
2.268962,-0.05317,10,3,11,7,8,30
2.598242,-0.036806,10,3,11,8,9,34
4.499785,-0.049748,10,3,11,9,10,38
4.277633,3.092692,10,3,11,12,13,42
2.523267,3.117699,10,3,11,13,14,46
2.193498,3.102623,10,3,11,14,15,50
2.117982,3.117956,10,3,11,15,16,54
2.652324,3.112684,10,4,12,1,2,58
4.088702,3.111804,10,4,12,2,3,62
4.607023,-0.040207,10,4,12,5,6,66
2.84117,-0.058075,10,4,12,6,7,70
2.306383,-0.060112,10,4,12,7,8,74
2.229999,-0.046305,10,4,12,8,9,78
2.802862,-0.052584,10,4,12,9,10,82
4.055942,-0.048387,10,4,12,10,11,86
4.180815,3.112865,10,4,12,13,14,90
2.597412,3.104574,10,4,12,14,15,94
2.117245,3.117684,10,4,12,15,16,98
2.209123,3.11964,10,5,13,1,2,102
2.651544,3.112678,10,5,13,2,3,106
4.622525,3.109504,10,5,13,3,4,110
4.276896,-0.04911,10,5,13,6,7,114
2.673453,-0.049107,10,5,13,7,8,118
2.19266,-0.039007,10,5,13,8,9,122
2.34484,-0.06659,10,5,13,9,10,126
2.527626,-0.060286,10,5,13,10,11,130
4.185281,-0.050563,10,5,13,11,12,134
4.163272,3.104027,10,5,13,14,15,138
2.559762,3.11114,10,5,13,15,16,142
2.192976,3.102736,10,6,14,1,2,146
2.209766,3.119793,10,6,14,2,3,150
2.652549,3.112862,10,6,14,3,4,154
3.813236,3.10843,10,6,14,4,5,158
4.202199,-0.041487,10,6,14,7,8,162
2.54412,-0.045226,10,6,14,8,9,166
2.344979,-0.066618,10,6,14,9,10,170
2.138883,-0.048989,10,6,14,10,11,174
2.582082,-0.051408,10,6,14,11,12,178
4.224036,-0.054232,10,6,14,12,13,182
4.217974,3.109135,10,6,14,15,16,186
2.635899,3.098932,10,7,15,1,2,190
2.155349,3.110373,10,7,15,2,3,194
2.209379,3.11973,10,7,15,3,4,198
2.301554,3.121338,10,7,15,4,5,202
4.052032,3.115924,10,7,15,5,6,206
4.110279,-0.042918,10,7,15,8,9,210
2.750213,-0.06058,10,7,15,9,10,214
2.139392,-0.049102,10,7,15,10,11,218
2.215378,-0.063418,10,7,15,11,12,222
2.659003,-0.063443,10,7,15,12,13,226
4.317304,-0.052824,10,7,15,13,14,230
4.293487,3.101622,10,8,16,1,2,234
2.560219,3.111056,10,8,16,2,3,238
2.19266,3.102586,10,8,16,3,4,242
1.896114,3.122498,10,8,16,4,5,246
2.485029,3.124293,10,8,16,5,6,250
4.14247,3.116955,10,8,16,6,7,254
4.46092,-0.04633,10,8,16,9,10,2
2.54353,-0.045407,10,8,16,10,11,6
2.215052,-0.063421,10,8,16,11,12,10
2.291293,-0.076609,10,8,16,12,13,14
2.581782,-0.051499,10,8,16,13,14,18
4.201081,-0.041433,10,8,16,14,15,22
4.108838,3.09855,10,9,1,2,3,26
2.596722,3.104628,10,9,1,3,4,30
1.895503,3.122433,10,9,1,4,5,34
2.116868,3.117769,10,9,1,5,6,38
2.59703,3.104571,10,9,1,6,7,42
4.308955,3.109983,10,9,1,7,8,46
4.017077,-0.044477,10,9,1,10,11,50
2.619228,-0.057683,10,9,1,11,12,54
2.306109,-0.060056,10,9,1,12,13,58
2.176275,-0.056409,10,9,1,13,14,62
2.63499,-0.04308,10,9,1,14,15,66
4.315007,-0.052717,10,9,1,15,16,70
4.253335,3.105172,10,10,2,3,4,74
2.283605,3.104913,10,10,2,4,5,78
2.116239,3.11791,10,10,2,5,6,82
2.154154,3.110127,10,10,2,6,7,86
2.613113,3.119105,10,10,2,7,8,90
4.049534,3.115853,10,10,2,8,9,94
4.329713,-0.044031,10,10,2,11,12,98
2.710668,-0.054948,10,10,2,12,13,102
2.191686,-0.038868,10,10,2,13,14,106
2.191878,-0.038837,10,10,2,14,15,110
2.672508,-0.049085,10,10,2,15,16,114
4.313872,-0.05281,10,11,3,1,2,118
3.811684,3.108186,10,11,3,4,5,122
2.613269,3.119076,10,11,3,5,6,126
2.245849,3.112105,10,11,3,6,7,130
2.208279,3.119603,10,11,3,7,8,134
2.538385,3.132268,10,11,3,8,9,138
4.438336,3.107418,10,11,3,9,10,142
4.314251,-0.052779,10,11,3,12,13,146
2.581103,-0.051593,10,11,3,13,14,150
2.138194,-0.049054,10,11,3,14,15,154
2.267961,-0.053179,10,11,3,15,16,158
2.634536,-0.043289,10,12,4,1,2,162
4.10885,-0.04319,10,12,4,2,3,166
4.567223,3.104766,10,12,4,5,6,170
2.742762,3.114125,10,12,4,6,7,174
2.246116,3.112048,10,12,4,7,8,178
2.170587,3.127269,10,12,4,8,9,182
2.726048,3.100538,10,12,4,9,10,186
4.032542,3.106446,10,12,4,10,11,190
4.253215,-0.03648,10,12,4,13,14,194
2.504791,-0.039016,10,12,4,14,15,198
2.229281,-0.04637,10,12,4,15,16,202
2.229135,-0.046048,10,13,5,1,2,206
2.672107,-0.048941,10,13,5,2,3,210
4.642262,-0.043491,10,13,5,3,4,214
4.329064,3.097706,10,13,5,6,7,218
2.650127,3.112932,10,13,5,7,8,222
2.153959,3.110243,10,13,5,8,9,226
2.321065,3.098042,10,13,5,9,10,230
2.504564,3.102693,10,13,5,10,11,234
4.177848,3.113057,10,13,5,11,12,238
4.199228,-0.041442,10,13,5,14,15,242
2.618057,-0.057398,10,13,5,15,16,246
2.191692,-0.039016,10,14,6,1,2,250
2.175894,-0.056471,10,14,6,2,3,254
2.72621,-0.041083,10,14,6,3,4,2
3.794902,-0.043342,10,14,6,4,5,6
4.16193,3.103962,10,14,6,7,8,10
2.521419,3.117537,10,14,6,8,9,14
2.283669,3.104972,10,14,6,9,10,18
2.100232,3.100156,10,14,6,10,11,22
2.55901,3.111135,10,14,6,11,12,26
4.200345,3.100097,10,14,6,12,13,30
4.237705,-0.045238,10,14,6,15,16,34
2.672659,-0.048966,10,15,7,1,2,38
2.138442,-0.048963,10,15,7,2,3,42
2.268025,-0.053119,10,15,7,3,4,46
2.3596,-0.050247,10,15,7,4,5,50
4.034413,-0.034784,10,15,7,5,6,54
4.088563,3.112039,10,15,7,8,9,58
2.765446,3.094952,10,15,7,9,10,62
2.117101,3.118154,10,15,7,10,11,66
2.154654,3.110308,10,15,7,11,12,70
2.673128,3.092689,10,15,7,12,13,74
4.309186,3.110249,10,15,7,13,14,78
4.291484,-0.040186,10,16,8,1,2,82
2.596633,-0.03673,10,16,8,2,3,86
2.229595,-0.046073,10,16,8,3,4,90
1.954426,-0.055294,10,16,8,4,5,94
2.505074,-0.038778,10,16,8,5,6,98
4.146339,-0.04665,10,16,8,6,7,102
4.421439,3.09918,10,16,8,9,10,106
2.521554,3.117803,10,16,8,10,11,110
2.19181,3.102843,10,16,8,11,12,114
2.267691,3.088471,10,16,8,12,13,118
2.613409,3.119342,10,16,8,13,14,122
4.254574,3.105325,10,16,8,14,15,126
4.109907,-0.042802,10,1,9,2,3,130
2.635527,-0.042958,10,1,9,3,4,134
1.955411,-0.055461,10,1,9,4,5,138
2.10079,-0.04149,10,1,9,5,6,142
2.635527,-0.042958,10,1,9,6,7,146
4.331612,-0.043875,10,1,9,7,8,150
3.980737,3.10132,10,1,9,10,11,154
2.598088,3.104815,10,1,9,11,12,158
2.268295,3.088417,10,1,9,12,13,162
2.17179,3.127516,10,1,9,13,14,166
2.652317,3.112831,10,1,9,14,15,170
4.272424,3.114082,10,1,9,15,16,174
4.330203,-0.043794,10,2,10,3,4,178
2.359806,-0.050216,10,2,10,4,5,182
2.10035,-0.041317,10,2,10,5,6,186
2.176521,-0.056171,10,2,10,6,7,190
2.635057,-0.042873,10,2,10,7,8,194
4.071103,-0.038747,10,2,10,8,9,198
4.308795,3.110365,10,2,10,11,12,202
2.689373,3.106777,10,2,10,12,13,206
2.20911,3.119934,10,2,10,13,14,210
2.209441,3.11979,10,2,10,14,15,214
2.651529,3.112972,10,2,10,15,16,218
4.310076,3.110223,10,3,11,1,2,222
3.834808,-0.047338,10,3,11,4,5,226
2.63584,-0.043015,10,3,11,5,6,230
2.268763,-0.053201,10,3,11,6,7,234
2.268359,-0.053116,10,3,11,7,8,238
2.54412,-0.045226,10,3,11,8,9,242
4.460907,-0.046183,10,3,11,9,10,246
4.16425,3.104061,10,3,11,12,13,250
2.559683,3.111228,10,3,11,13,14,254
2.154465,3.110277,10,3,11,14,15,2
2.24663,3.112376,10,3,11,15,16,6
2.651304,3.112794,10,4,12,1,2,10
4.087615,3.111858,10,4,12,2,3,14
4.643641,-0.043633,10,4,12,5,6,18
2.726603,-0.040933,10,4,12,6,7,22
2.22993,-0.046217,10,4,12,7,8,26
2.138006,-0.049085,10,4,12,8,9,30
2.726927,-0.04099,10,4,12,9,10,34
4.055575,-0.048271,10,4,12,10,11,38
4.254213,3.105146,10,4,12,13,14,42
2.597023,3.104718,10,4,12,14,15,46
2.208667,3.119665,10,4,12,15,16,50
2.208342,3.119662,10,5,13,1,2,54
2.688749,3.106596,10,5,13,2,3,58
4.584726,3.113183,10,5,13,3,4,62
4.200345,-0.041496,10,5,13,6,7,66
2.635378,-0.043077,10,5,13,7,8,70
2.100297,-0.041524,10,5,13,8,9,74
2.306174,-0.059996,10,5,13,9,10,78
2.489538,-0.054105,10,5,13,10,11,82
4.184665,-0.050566,10,5,13,11,12,86
4.16339,3.104086,10,5,13,14,15,90
2.651221,3.112882,10,5,13,15,16,94
2.209047,3.119874,10,6,14,1,2,98
2.154782,3.11028,10,6,14,2,3,102
2.70631,3.120667,10,6,14,3,4,106
3.829731,3.118218,10,6,14,4,5,110
4.201699,-0.04143,10,6,14,7,8,114
2.468208,-0.032236,10,6,14,8,9,118
2.306579,-0.059934,10,6,14,9,10,122
2.085212,-0.05961,10,6,14,10,11,126
2.581928,-0.05138,10,6,14,11,12,130
4.223785,-0.054204,10,6,14,12,13,134
4.217855,3.109075,10,6,14,15,16,138
2.614628,3.119558,10,7,15,1,2,142
2.155153,3.110489,10,7,15,2,3,146
2.209573,3.119761,10,7,15,3,4,150
2.339255,3.114079,10,7,15,4,5,154
4.088216,3.111861,10,7,15,5,6,158
4.110279,-0.042918,10,7,15,8,9,162
2.749645,-0.060555,10,7,15,9,10,166
2.123156,-0.066961,10,7,15,10,11,170
2.138762,-0.049107,10,7,15,11,12,174
2.696449,-0.068967,10,7,15,12,13,178
4.332127,-0.043932,10,7,15,13,14,182
4.292855,3.101619,10,8,16,1,2,186
2.559458,3.111197,10,8,16,2,3,190
2.209185,3.119699,10,8,16,3,4,194
1.987905,3.124322,10,8,16,4,5,198
2.467782,3.109147,10,8,16,5,6,202
4.255718,3.105124,10,8,16,6,7,206
4.460781,-0.046242,10,8,16,9,10,210
2.543077,-0.045323,10,8,16,10,11,214
2.176337,-0.056349,10,8,16,11,12,218
2.344495,-0.066593,10,8,16,12,13,222
2.673135,-0.049051,10,8,16,13,14,226
4.391282,-0.059798,10,8,16,14,15,230
4.086655,3.111824,10,9,1,2,3,234
2.650449,3.112729,10,9,1,3,4,238
1.970722,3.105232,10,9,1,4,5,242
2.07902,3.125921,10,9,1,5,6,246
2.596876,3.1046,10,9,1,6,7,250
4.363027,3.114927,10,9,1,7,8,254
4.016839,-0.044448,10,9,1,10,11,2
2.618761,-0.057598,10,9,1,11,12,6
2.344289,-0.066624,10,9,1,12,13,10
2.192145,-0.039041,10,9,1,13,14,14
2.61945,-0.057505,10,9,1,14,15,18
4.293136,-0.040296,10,9,1,15,16,22
4.25384,3.105115,10,10,2,3,4,26
2.374908,3.10712,10,10,2,4,5,30
2.116053,3.117879,10,10,2,5,6,34
2.15371,3.110152,10,10,2,6,7,38
2.613113,3.119105,10,10,2,7,8,42
4.086413,3.111852,10,10,2,8,9,46
4.291618,-0.040273,10,10,2,11,12,50
2.733006,-0.074605,10,10,2,12,13,54
2.191885,-0.038984,10,10,2,13,14,58
2.229533,-0.046132,10,10,2,14,15,62
2.671948,-0.048913,10,10,2,15,16,66
4.313238,-0.052813,10,11,3,1,2,70
3.810897,3.108212,10,11,3,4,5,74
2.613113,3.119105,10,11,3,5,6,78
2.245779,3.112192,10,11,3,6,7,82
2.245582,3.112161,10,11,3,7,8,86
2.521048,3.117534,10,11,3,8,9,90
4.383001,3.102546,10,11,3,9,10,94
4.237586,-0.045297,10,11,3,12,13,98
2.581023,-0.051505,10,11,3,13,14,102
2.283398,-0.036564,10,11,3,14,15,106
2.213937,-0.063254,10,11,3,15,16,110
2.633835,-0.043236,10,12,4,1,2,114
4.107153,-0.043139,10,12,4,2,3,118
4.620081,3.109465,10,12,4,5,6,122
2.704573,3.120389,10,12,4,6,7,126
2.245392,3.111983,10,12,4,7,8,130
2.133159,3.135327,10,12,4,8,9,134
2.650217,3.112698,10,12,4,9,10,138
4.031938,3.10659,10,12,4,10,11,142
4.274755,-0.049091,10,12,4,13,14,146
2.634066,-0.043204,10,12,4,14,15,150
2.191308,-0.039078,10,12,4,15,16,154
2.229268,-0.046076,10,13,5,1,2,158
2.671714,-0.048944,10,13,5,2,3,162
4.588163,-0.048223,10,13,5,3,4,166
4.161436,3.104018,10,13,5,6,7,170
2.596178,3.1048,10,13,5,7,8,174
2.07852,3.126181,10,13,5,8,9,178
2.115796,3.118083,10,13,5,9,10,182
2.466764,3.109198,10,13,5,10,11,186
4.177966,3.113116,10,13,5,11,12,190
4.123952,-0.033664,10,13,5,14,15,194
2.633977,-0.04297,10,13,5,15,16,198
2.229274,-0.046223,10,14,6,1,2,202
2.175247,-0.05633,10,14,6,2,3,206
2.764156,-0.046856,10,14,6,3,4,210
3.833355,-0.047523,10,14,6,4,5,214
4.161695,3.103843,10,14,6,7,8,218
2.52112,3.117594,10,14,6,8,9,222
2.15377,3.110212,10,14,6,9,10,226
2.062285,3.107784,10,14,6,10,11,230
2.558858,3.111163,10,14,6,11,12,234
4.200095,3.100125,10,14,6,12,13,238
4.237957,-0.045266,10,14,6,15,16,242
2.634438,-0.042907,10,15,7,1,2,246
2.138187,-0.048907,10,15,7,2,3,250
2.229791,-0.046042,10,15,7,3,4,254
2.305965,-0.05988,10,15,7,4,5,2
4.14682,-0.046559,10,15,7,5,6,6
4.086874,3.11209,10,15,7,8,9,10
2.689053,3.106834,10,15,7,9,10,14
2.062395,3.10805,10,15,7,10,11,18
2.11673,3.118091,10,15,7,11,12,22
2.634982,3.09866,10,15,7,12,13,26
4.271155,3.114223,10,15,7,13,14,30
4.329309,-0.043768,10,16,8,1,2,34
2.542242,-0.045094,10,16,8,2,3,38
2.2294,-0.046104,10,16,8,3,4,42
1.916439,-0.047172,10,16,8,4,5,46
2.505074,-0.038778,10,16,8,5,6,50
4.35266,-0.056202,10,16,8,6,7,54
4.42249,3.099067,10,16,8,9,10,58
2.505152,3.102727,10,16,8,10,11,62
2.154337,3.110305,10,16,8,11,12,66
2.230056,3.095494,10,16,8,12,13,70
2.651296,3.112941,10,16,8,13,14,74
4.346893,3.106457,10,16,8,14,15,78
4.110395,-0.042858,10,1,9,2,3,82
2.673604,-0.048989,10,1,9,3,4,86
1.955698,-0.055458,10,1,9,4,5,90
2.139325,-0.049014,10,1,9,5,6,94
2.787992,-0.065954,10,1,9,6,7,98
4.331354,-0.043847,10,1,9,7,8,102
3.980376,3.101436,10,1,9,10,11,106
2.597706,3.104812,10,1,9,11,12,110
2.268359,3.088476,10,1,9,12,13,114
2.209179,3.119846,10,1,9,13,14,118
2.72732,3.100753,10,1,9,14,15,122
4.272545,3.114142,10,1,9,15,16,126
4.291982,-0.040095,10,2,10,3,4,130
2.3596,-0.050247,10,2,10,4,5,134
2.192132,-0.038747,10,2,10,5,6,138
2.192393,-0.038803,10,2,10,6,7,142
2.619442,-0.057358,10,2,10,7,8,146
4.055322,-0.048096,10,2,10,8,9,150
4.292989,3.101532,10,2,10,11,12,154
2.689449,3.106837,10,2,10,12,13,158
2.208916,3.119903,10,2,10,13,14,162
2.192393,3.102789,10,2,10,14,15,166
2.651446,3.11306,10,2,10,15,16,170
4.309051,3.110336,10,3,11,1,2,174
3.834352,-0.047282,10,3,11,4,5,178
2.673839,-0.048957,10,3,11,5,6,182
2.268827,-0.053142,10,3,11,6,7,186
2.268827,-0.053142,10,3,11,7,8,190
2.620139,-0.057411,10,3,11,8,9,194
4.354336,-0.056312,10,3,11,9,10,198
4.202068,3.100193,10,3,11,12,13,202
2.651769,3.112856,10,3,11,13,14,206
2.117544,3.117981,10,3,11,14,15,210
2.246967,3.112232,10,3,11,15,16,214
2.614193,3.119054,10,4,12,1,2,218
4.087858,3.11183,10,4,12,2,3,222
4.697719,-0.038922,10,4,12,5,6,226
2.764883,-0.046763,10,4,12,6,7,230
2.268166,-0.053294,10,4,12,7,8,234
2.138575,-0.049139,10,4,12,8,9,238
2.581563,-0.051677,10,4,12,9,10,242
4.055827,-0.048446,10,4,12,10,11,246
4.29288,3.101325,10,4,12,13,14,250
2.59764,3.104605,10,4,12,14,15,254
2.246509,3.11211,10,4,12,15,16,2
2.246643,3.112082,10,5,13,1,2,6
2.651544,3.112678,10,5,13,2,3,10
4.622381,3.109592,10,5,13,3,4,14
4.201343,-0.041609,10,5,13,6,7,18
2.635452,-0.043017,10,5,13,7,8,22
2.100541,-0.041433,10,5,13,8,9,26
2.138067,-0.049026,10,5,13,9,10,30
2.489242,-0.054049,10,5,13,10,11,34
4.237957,-0.045266,10,5,13,11,12,38
4.16352,3.103999,10,5,13,14,15,42
2.635452,3.098575,10,5,13,15,16,46
2.209372,3.119877,10,6,14,1,2,50
2.171593,3.127632,10,6,14,2,3,54
2.743871,3.114515,10,6,14,3,4,58
3.867088,3.113906,10,6,14,4,5,62
4.201949,-0.041459,10,6,14,7,8,66
2.506109,-0.038829,10,6,14,8,9,70
2.138442,-0.048963,10,6,14,9,10,74
2.085024,-0.059494,10,6,14,10,11,78
2.581782,-0.051499,10,6,14,11,12,82
4.18515,-0.050475,10,6,14,12,13,86
4.217723,3.109163,10,6,14,15,16,90
2.598073,3.105109,10,7,15,1,2,94
2.117472,3.118216,10,7,15,2,3,98
2.20931,3.119818,10,7,15,3,4,102
2.264115,3.128807,10,7,15,4,5,106
4.12736,3.107827,10,7,15,5,6,110
4.148675,-0.046845,10,7,15,8,9,114
2.673688,-0.049076,10,7,15,9,10,118
2.10104,-0.041546,10,7,15,10,11,122
2.177045,-0.056431,10,7,15,11,12,126
2.566642,-0.066366,10,7,15,12,13,130
4.332004,-0.043991,10,7,15,13,14,134
4.309551,3.110427,10,8,16,1,2,138
2.55961,3.111169,10,8,16,2,3,142
2.208991,3.119668,10,8,16,3,4,146
1.895497,3.12258,10,8,16,4,5,150
2.484516,3.124319,10,8,16,5,6,154
4.422628,3.098979,10,8,16,6,7,158
4.406729,-0.051205,10,8,16,9,10,162
2.505677,-0.039038,10,8,16,10,11,166
2.230391,-0.046242,10,8,16,11,12,170
2.062582,-0.033658,10,8,16,12,13,174
2.673052,-0.048963,10,8,16,13,14,178
4.368885,-0.047543,10,8,16,14,15,182
4.086783,3.111736,10,9,1,2,3,186
2.650839,3.112732,10,9,1,3,4,190
1.932582,3.113778,10,9,1,4,5,194
2.153838,3.110124,10,9,1,5,6,198
2.801871,3.089031,10,9,1,6,7,202
4.307809,3.110036,10,9,1,7,8,206
4.016964,-0.044536,10,9,1,10,11,210
2.580796,-0.051536,10,9,1,11,12,214
2.062466,-0.033777,10,9,1,12,13,218
2.267897,-0.053238,10,9,1,13,14,222
2.802275,-0.052412,10,9,1,14,15,226
4.314507,-0.052807,10,9,1,15,16,230
4.291108,3.101376,10,10,2,3,4,234
2.300063,3.121354,10,10,2,4,5,238
2.170513,3.127504,10,10,2,5,6,242
2.412808,3.100456,10,10,2,6,7,246
2.612958,3.119133,10,10,2,7,8,250
4.048938,3.11585,10,10,2,8,9,254
4.328685,-0.043918,10,10,2,11,12,2
2.618139,-0.057485,10,10,2,12,13,6
2.26723,-0.053244,10,10,2,13,14,10
2.343944,-0.066627,10,10,2,14,15,14
2.710185,-0.054863,10,10,2,15,16,18
4.31336,-0.052754,10,11,3,1,2,22
3.811349,3.108155,10,11,3,4,5,26
2.650524,3.112788,10,11,3,5,6,30
2.435125,3.078161,10,11,3,6,7,34
2.208211,3.11969,10,11,3,7,8,38
2.613269,3.119076,10,11,3,8,9,42
4.345382,3.106185,10,11,3,9,10,46
4.18405,-0.050569,10,11,3,12,13,50
2.672667,-0.049113,10,11,3,13,14,54
2.305972,-0.060027,10,11,3,14,15,58
2.267769,-0.053357,10,11,3,15,16,62
2.618228,-0.05772,10,12,4,1,2,66
4.107386,-0.04302,10,12,4,2,3,70
4.696086,3.102399,10,12,4,5,6,74
2.893148,3.091174,10,12,4,6,7,78
2.245385,3.11213,10,12,4,7,8,82
2.245322,3.112071,10,12,4,8,9,86
2.520906,3.117415,10,12,4,9,10,90
4.031949,3.106443,10,12,4,10,11,94
4.290732,-0.040248,10,12,4,13,14,98
2.671881,-0.049119,10,12,4,14,15,102
2.26723,-0.053244,10,12,4,15,16,106
2.267358,-0.053125,10,13,5,1,2,110
2.671631,-0.048856,10,13,5,2,3,114
4.626124,-0.051647,10,13,5,3,4,118
4.328158,3.097878,10,13,5,6,7,122
2.612566,3.119277,10,13,5,7,8,126
2.207679,3.11995,10,13,5,8,9,130
2.061911,3.108016,10,13,5,9,10,134
2.504494,3.102634,10,13,5,10,11,138
4.214492,3.109236,10,13,5,11,12,142
4.291484,-0.040186,10,13,5,14,15,146
2.671956,-0.04906,10,13,5,15,16,150
2.229344,-0.04631,10,14,6,1,2,154
2.153582,-0.031412,10,14,6,2,3,158
2.763586,-0.046831,10,14,6,3,4,162
3.962197,-0.049798,10,14,6,4,5,166
4.161813,3.103902,10,14,6,7,8,170
2.55901,3.111135,10,14,6,8,9,174
2.079014,3.126068,10,14,6,9,10,178
2.07865,3.126006,10,14,6,10,11,182
2.558858,3.111163,10,14,6,11,12,186
4.108094,3.098782,10,14,6,12,13,190
4.199727,-0.041499,10,14,6,15,16,194
2.634356,-0.04282,10,15,7,1,2,198
2.138187,-0.048907,10,15,7,2,3,202
2.26789,-0.053091,10,15,7,3,4,206
2.3596,-0.050247,10,15,7,4,5,210
4.200701,-0.041317,10,15,7,5,6,214
4.125153,3.108081,10,15,7,8,9,218
2.521775,3.117834,10,15,7,9,10,222
2.062395,3.10805,10,15,7,10,11,226
2.154209,3.110333,10,15,7,11,12,230
2.521775,3.117834,10,15,7,12,13,234
4.308162,3.110362,10,15,7,13,14,238
4.328929,-0.0438,10,16,8,1,2,242
2.580482,-0.051332,10,16,8,2,3,246
2.267422,-0.053066,10,16,8,3,4,250
1.932915,-0.027605,10,16,8,4,5,254
2.505074,-0.038778,10,16,8,5,6,2
4.390499,-0.059713,10,16,8,6,7,6
4.383496,3.102784,10,16,8,9,10,10
2.504925,3.102843,10,16,8,10,11,14
2.191748,3.102784,10,16,8,11,12,18
2.11667,3.118032,10,16,8,12,13,22
2.688817,3.106803,10,16,8,13,14,26
4.345479,3.106539,10,16,8,14,15,30
4.110023,-0.042742,10,1,9,2,3,34
2.673445,-0.04896,10,1,9,3,4,38
1.955062,-0.055376,10,1,9,4,5,42
2.192523,-0.038831,10,1,9,5,6,46
2.711457,-0.054795,10,1,9,6,7,50
4.331232,-0.043907,10,1,9,7,8,54
3.996831,3.110813,10,1,9,10,11,58
2.560067,3.111084,10,1,9,11,12,62
2.15491,3.110252,10,1,9,12,13,66
2.209054,3.119727,10,1,9,13,14,70
2.819046,3.102674,10,1,9,14,15,74
4.309954,3.110164,10,1,9,15,16,78
4.330975,-0.043878,10,2,10,3,4,82
2.359806,-0.050216,10,2,10,4,5,86
2.230182,-0.045979,10,2,10,5,6,90
2.268359,-0.053116,10,2,10,6,7,94
2.597088,-0.036668,10,2,10,7,8,98
4.055195,-0.048008,10,2,10,8,9,102
4.347655,3.106519,10,2,10,11,12,106
2.505514,3.102877,10,2,10,12,13,110
2.246496,3.112405,10,2,10,13,14,114
2.37595,3.107275,10,2,10,14,15,118
2.689456,3.10669,10,2,10,15,16,122
4.30982,3.110252,10,3,11,1,2,126
3.926457,-0.045678,10,3,11,4,5,130
2.765368,-0.0467,10,3,11,5,6,134
2.435971,-0.06316,10,3,11,6,7,138
2.192393,-0.038803,10,3,11,7,8,142
2.581468,-0.051295,10,3,11,8,9,146
4.369009,-0.047484,10,3,11,9,10,150
4.110151,3.098763,10,3,11,12,13,154
2.651844,3.112916,10,3,11,13,14,158
2.322155,3.09811,10,3,11,14,15,162
2.246433,3.112345,10,3,11,15,16,166
2.613727,3.119139,10,4,12,1,2,170
4.087858,3.11183,10,4,12,2,3,174
4.68154,-0.047055,10,4,12,5,6,178
2.932427,-0.055495,10,4,12,6,7,182
2.230195,-0.046274,10,4,12,7,8,186
2.191816,-0.038897,10,4,12,8,9,190
2.542854,-0.045354,10,4,12,9,10,194
4.054737,-0.048246,10,4,12,10,11,198
4.292249,3.101322,10,4,12,13,14,202
2.726287,3.100569,10,4,12,14,15,206
2.245976,3.112223,10,4,12,15,16,210
2.245976,3.112223,10,5,13,1,2,214
2.650757,3.112819,10,5,13,2,3,218
4.621701,3.109589,10,5,13,3,4,222
4.36786,-0.047577,10,5,13,6,7,226
2.597023,-0.036874,10,5,13,7,8,230
2.176139,-0.056234,10,5,13,8,9,234
2.13794,-0.048997,10,5,13,9,10,238
2.527175,-0.060202,10,5,13,10,11,242
4.200463,-0.041436,10,5,13,11,12,246
4.329309,3.097824,10,5,13,14,15,250
2.651296,3.112941,10,5,13,15,16,254
2.209047,3.119874,10,6,14,1,2,2
2.117233,3.117978,10,6,14,2,3,6
2.743708,3.114543,10,6,14,3,4,10
3.980027,3.101404,10,6,14,4,5,14
4.147806,-0.046672,10,6,14,7,8,18
2.581702,-0.051411,10,6,14,8,9,22
2.100665,-0.041462,10,6,14,9,10,26
2.138442,-0.048963,10,6,14,10,11,30
2.543371,-0.045232,10,6,14,11,12,34
3.979678,-0.040219,10,6,14,12,13,38
4.217974,3.109135,10,6,14,15,16,42
2.614628,3.119558,10,7,15,1,2,46
2.0633,3.108206,10,7,15,2,3,50
2.284542,3.105009,10,7,15,3,4,54
2.339116,3.114107,10,7,15,4,5,58
4.180306,3.113068,10,7,15,5,6,62
4.110524,-0.042946,10,7,15,8,9,66
2.506187,-0.038916,10,7,15,9,10,70
2.13895,-0.049076,10,7,15,10,11,74
2.176977,-0.056344,10,7,15,11,12,78
2.490715,-0.054184,10,7,15,12,13,82
4.316668,-0.052827,10,7,15,13,14,86
4.292721,3.101707,10,8,16,1,2,90
2.559458,3.111197,10,8,16,2,3,94
2.28407,3.105035,10,8,16,3,4,98
1.987731,3.12429,10,8,16,4,5,102
2.597331,3.104662,10,8,16,5,6,106
4.331367,3.097598,10,8,16,6,7,110
4.368762,-0.047603,10,8,16,9,10,114
2.543379,-0.045379,10,8,16,10,11,118
2.176786,-0.056375,10,8,16,11,12,122
2.100856,-0.041578,10,8,16,12,13,126
2.711143,-0.054885,10,8,16,13,14,130
4.352525,-0.056115,10,8,16,14,15,134
4.108594,3.098578,10,9,1,2,3,138
2.650524,3.112788,10,9,1,3,4,142
1.987028,3.124313,10,9,1,4,5,146
2.154093,3.110068,10,9,1,5,6,150
2.726048,3.100538,10,9,1,6,7,154
4.307809,3.110036,10,9,1,7,8,158
4.016713,-0.044361,10,9,1,10,11,162
2.58103,-0.051652,10,9,1,11,12,166
2.099804,-0.041558,10,9,1,12,13,170
2.2294,-0.046104,10,9,1,13,14,174
2.764148,-0.046709,10,9,1,14,15,178
4.291982,-0.040095,10,9,1,15,16,182
4.345111,3.10636,10,10,2,3,4,186
2.374908,3.10712,10,10,2,4,5,190
2.245315,3.112218,10,10,2,5,6,194
2.374552,3.107264,10,10,2,6,7,198
2.612648,3.119189,10,10,2,7,8,202
4.048812,3.115938,10,10,2,8,9,206
4.329077,-0.044034,10,10,2,11,12,210
2.54248,-0.045357,10,10,2,12,13,214
2.267493,-0.053153,10,10,2,13,14,218
2.358699,-0.050284,10,10,2,14,15,222
2.671873,-0.048972,10,10,2,15,16,226
4.329077,-0.044034,10,11,3,1,2,230
3.940163,3.105314,10,11,3,4,5,234
2.779984,3.108431,10,11,3,5,6,238
2.374767,3.107148,10,11,3,6,7,242
2.208342,3.119662,10,11,3,7,8,246
2.5755,3.125662,10,11,3,8,9,250
4.307931,3.110096,10,11,3,9,10,254
4.092223,-0.05206,10,11,3,12,13,2
2.672349,-0.049057,10,11,3,13,14,6
2.397073,-0.057003,10,11,3,14,15,10
2.229665,-0.046161,10,11,3,15,16,14
2.633992,-0.043264,10,12,4,1,2,18
4.10727,-0.043079,10,12,4,2,3,22
4.695807,3.102427,10,12,4,5,6,26
2.817651,3.102399,10,12,4,6,7,30
2.207699,3.119509,10,12,4,7,8,34
2.153783,3.109918,10,12,4,8,9,38
2.575428,3.125603,10,12,4,9,10,42
4.031938,3.10659,10,12,4,10,11,46
4.290732,-0.040248,10,12,4,13,14,50
2.786368,-0.066259,10,12,4,14,15,54
2.229476,-0.046339,10,12,4,15,16,58
2.283056,-0.03642,10,13,5,1,2,62
2.671873,-0.048972,10,13,5,2,3,66
4.641711,-0.043435,10,13,5,3,4,70
4.45827,3.095545,10,13,5,6,7,74
2.558177,3.111216,10,13,5,7,8,78
2.116173,3.117998,10,13,5,8,9,82
2.116167,3.118145,10,13,5,9,10,86
2.521112,3.117741,10,13,5,10,11,90
4.177848,3.113057,10,13,5,11,12,94
4.329186,-0.043828,10,13,5,14,15,98
2.633977,-0.04297,10,13,5,15,16,102
2.267698,-0.053269,10,14,6,1,2,106
2.137758,-0.049176,10,14,6,2,3,110
2.74844,-0.060711,10,14,6,3,4,114
4.001138,-0.053856,10,14,6,4,5,118
4.124932,3.107816,10,14,6,7,8,122
2.521412,3.117684,10,14,6,8,9,126
2.116676,3.117885,10,14,6,9,10,130
2.154532,3.110189,10,14,6,10,11,134
2.559162,3.111106,10,14,6,11,12,138
3.995305,3.110776,10,14,6,12,13,142
4.238077,-0.045207,10,14,6,15,16,146
2.635139,-0.042961,10,15,7,1,2,150
2.100416,-0.041405,10,15,7,2,3,154
2.26789,-0.053091,10,15,7,3,4,158
2.436047,-0.063248,10,15,7,4,5,162
4.238568,-0.045116,10,15,7,5,6,166
4.087718,3.112064,10,15,7,8,9,170
2.522075,3.117778,10,15,7,9,10,174
2.15427,3.110393,10,15,7,10,11,178
2.116915,3.118123,10,15,7,11,12,182
2.430208,3.116122,10,15,7,12,13,186
4.309429,3.110368,10,15,7,13,14,190
4.329443,-0.043856,10,16,8,1,2,194
2.542767,-0.045119,10,16,8,2,3,198
2.267358,-0.053125,10,16,8,3,4,202
1.992538,-0.063107,10,16,8,4,5,206
2.672417,-0.04885,10,16,8,5,6,210
4.313469,-0.052547,10,16,8,6,7,214
4.329309,3.097824,10,16,8,9,10,218
2.505074,3.102815,10,16,8,10,11,222
2.116293,3.118117,10,16,8,11,12,226
2.024457,3.116144,10,16,8,12,13,230
2.688657,3.106831,10,16,8,13,14,234
4.254706,3.105237,10,16,8,14,15,238
4.109663,-0.042774,10,1,9,2,3,242
2.71178,-0.054851,10,1,9,3,4,246
2.009476,-0.044261,10,1,9,4,5,250
2.268628,-0.053173,10,1,9,5,6,254
2.803012,-0.052318,10,1,9,6,7,2
4.331477,-0.043788,10,1,9,7,8,6
3.980737,3.10132,10,1,9,10,11,10
2.560364,3.111174,10,1,9,11,12,14
2.025294,3.116094,10,1,9,12,13,18
2.209248,3.119758,10,1,9,13,14,22
2.597787,3.104724,10,1,9,14,15,26
4.272545,3.114142,10,1,9,15,16,30
4.330203,-0.043794,10,2,10,3,4,34
2.397839,-0.056791,10,2,10,4,5,38
2.306233,-0.05979,10,2,10,5,6,42
2.452048,-0.047611,10,2,10,6,7,46
2.597397,-0.036724,10,2,10,7,8,50
4.055563,-0.048124,10,2,10,8,9,54
4.309685,3.110339,10,2,10,11,12,58
2.467845,3.109354,10,2,10,12,13,62
2.246897,3.11232,10,2,10,13,14,66
2.209241,3.119906,10,2,10,14,15,70
2.614178,3.119348,10,2,10,15,16,74
4.30982,3.110252,10,3,11,1,2,78
4.017645,-0.04418,10,3,11,4,5,82
2.818958,-0.038831,10,3,11,5,6,86
2.436619,-0.063214,10,3,11,6,7,90
2.23058,-0.046064,10,3,11,7,8,94
2.543969,-0.045198,10,3,11,8,9,98
4.331612,-0.043875,10,3,11,9,10,102
3.995768,3.110866,10,3,11,12,13,106
2.652001,3.112888,10,3,11,13,14,110
2.192591,3.102674,10,3,11,14,15,114
2.116981,3.118035,10,3,11,15,16,118
2.613645,3.119226,10,4,12,1,2,122
4.087487,3.111946,10,4,12,2,3,126
4.682507,-0.04708,10,4,12,5,6,130
2.917023,-0.068602,10,4,12,6,7,134
2.22993,-0.046217,10,4,12,7,8,138
2.138194,-0.049054,10,4,12,8,9,142
2.597177,-0.036902,10,4,12,9,10,146
4.017077,-0.044477,10,4,12,10,11,150
4.292747,3.101413,10,4,12,13,14,154
2.764719,3.094858,10,4,12,14,15,158
2.116862,3.117916,10,4,12,15,16,162
2.246376,3.112139,10,5,13,1,2,166
2.651072,3.112763,10,5,13,2,3,170
4.584454,3.113211,10,5,13,3,4,174
4.367983,-0.047518,10,5,13,6,7,178
2.581249,-0.051474,10,5,13,7,8,182
2.138381,-0.049023,10,5,13,8,9,186
2.17646,-0.056231,10,5,13,9,10,190
2.527626,-0.060286,10,5,13,10,11,194
4.185399,-0.050503,10,5,13,11,12,198
4.330338,3.097711,10,5,13,14,15,202
2.597478,3.104781,10,5,13,15,16,206
2.246763,3.112348,10,6,14,1,2,210
2.117167,3.118066,10,6,14,2,3,214
2.743219,3.114628,10,6,14,3,4,218
4.034299,3.106749,10,6,14,4,5,222
4.163637,-0.037534,10,6,14,7,8,226
2.543594,-0.045201,10,6,14,8,9,230
2.138944,-0.048929,10,6,14,9,10,234
2.138883,-0.048989,10,6,14,10,11,238
2.54435,-0.045342,10,6,14,11,12,242
3.981323,-0.04027,10,6,14,12,13,246
4.218845,3.10911,10,6,14,15,16,250
2.615324,3.119504,10,7,15,1,2,254
2.063732,3.108034,10,7,15,2,3,2
2.209704,3.119733,10,7,15,3,4,6
2.414803,3.100355,10,7,15,4,5,10
4.218977,3.109022,10,7,15,5,6,14
4.111373,-0.042971,10,7,15,8,9,18
2.58293,-0.051637,10,7,15,9,10,22
2.139646,-0.049158,10,7,15,10,11,26
2.139646,-0.049158,10,7,15,11,12,30
2.490941,-0.0543,10,7,15,12,13,34
4.316912,-0.052708,10,7,15,13,14,38
4.310698,3.110373,10,8,16,1,2,42
2.522746,3.117724,10,8,16,2,3,46
2.209773,3.119645,10,8,16,3,4,50
2.009306,3.097153,10,8,16,4,5,54
2.651852,3.112769,10,8,16,5,6,58
4.217735,3.109016,10,8,16,6,7,62
4.331882,-0.044051,10,8,16,9,10,66
2.543904,-0.045404,10,8,16,10,11,70
2.138762,-0.049107,10,8,16,11,12,74
2.100981,-0.041606,10,8,16,12,13,78
2.711542,-0.054882,10,8,16,13,14,82
4.239708,-0.045317,10,8,16,14,15,86
4.12457,3.107784,10,9,1,2,3,90
2.650839,3.112732,10,9,1,3,4,94
2.024526,3.11591,10,9,1,4,5,98
2.283469,3.104941,10,9,1,5,6,102
2.688278,3.106534,10,9,1,6,7,106
4.308309,3.110127,10,9,1,7,8,110
4.016361,-0.044392,10,9,1,10,11,114
2.58057,-0.051567,10,9,1,11,12,118
2.099988,-0.041527,10,9,1,12,13,122
2.267294,-0.053184,10,9,1,13,14,126
2.634603,-0.043083,10,9,1,14,15,130
4.291605,-0.040126,10,9,1,15,16,134
4.291108,3.101376,10,10,2,3,4,138
2.488292,3.087507,10,10,2,4,5,142
2.320659,3.09798,10,10,2,5,6,146
2.245049,3.112274,10,10,2,6,7,150
2.612648,3.119189,10,10,2,7,8,154
4.010804,3.120157,10,10,2,8,9,158
4.329321,-0.043915,10,10,2,11,12,162
2.50494,-0.039044,10,10,2,12,13,166
2.267698,-0.053269,10,10,2,13,14,170
2.229533,-0.046132,10,10,2,14,15,174
2.580708,-0.051301,10,10,2,15,16,178
4.367872,-0.047724,10,11,3,1,2,182
4.016839,3.097144,10,11,3,4,5,186
2.818058,3.102549,10,11,3,5,6,190
2.245449,3.112189,10,11,3,6,7,194
2.208342,3.119662,10,11,3,7,8,198
2.483933,3.124285,10,11,3,8,9,202
4.2331,3.117913,10,11,3,9,10,206
3.994954,-0.030848,10,11,3,12,13,210
2.710422,-0.054832,10,11,3,13,14,214
2.2294,-0.046104,10,11,3,14,15,218
2.137692,-0.049088,10,11,3,15,16,222
2.633835,-0.043236,10,12,4,1,2,226
4.10727,-0.043079,10,12,4,2,3,230
4.695674,3.102368,10,12,4,5,6,234
2.855312,3.096756,10,12,4,6,7,238
2.208092,3.119425,10,12,4,7,8,242
2.078597,3.1258,10,12,4,8,9,246
2.612966,3.118986,10,12,4,9,10,250
4.032177,3.106562,10,12,4,10,11,254
4.291242,-0.040305,10,12,4,13,14,2
2.634223,-0.043233,10,12,4,14,15,6
2.137505,-0.049119,10,12,4,15,16,10
2.305352,-0.059827,10,13,5,1,2,14
2.671556,-0.048916,10,13,5,2,3,18
4.588436,-0.048252,10,13,5,3,4,22
4.382591,3.102809,10,13,5,6,7,26
2.558626,3.111279,10,13,5,7,8,30
2.041263,3.134457,10,13,5,8,9,34
2.191494,3.102693,10,13,5,9,10,38
2.504635,3.102752,10,13,5,10,11,42
4.177848,3.113057,10,13,5,11,12,46
4.328807,-0.043859,10,13,5,14,15,50
2.558785,-0.030489,10,13,5,15,16,54
2.267301,-0.053331,10,14,6,1,2,58
2.137692,-0.049088,10,14,6,2,3,62
2.764078,-0.046916,10,14,6,3,4,66
4.038729,-0.057818,10,14,6,4,5,70
4.162542,3.103965,10,14,6,7,8,74
2.483925,3.124432,10,14,6,8,9,78
2.153905,3.110036,10,14,6,9,10,82
2.116484,3.118001,10,14,6,10,11,86
2.55893,3.111222,10,14,6,11,12,90
3.957321,3.115061,10,14,6,12,13,94
4.237334,-0.045269,10,14,6,15,16,98
2.672183,-0.048882,10,15,7,1,2,102
2.100166,-0.041349,10,15,7,2,3,106
2.26789,-0.053091,10,15,7,3,4,110
2.512371,-0.07529,10,15,7,4,5,114
4.23882,-0.045144,10,15,7,5,6,118
4.088204,3.112008,10,15,7,8,9,122
2.559835,3.1112,10,15,7,9,10,126
2.116975,3.118182,10,15,7,10,11,130
2.154526,3.110336,10,15,7,11,12,134
2.484797,3.124556,10,15,7,12,13,138
4.309308,3.110308,10,15,7,13,14,142
4.329566,-0.043797,10,16,8,1,2,146
2.542393,-0.045122,10,16,8,2,3,150
2.229728,-0.046101,10,16,8,3,4,154
2.084286,-0.059472,10,16,8,4,5,158
2.710414,-0.054685,10,16,8,5,6,162
4.276121,-0.048879,10,16,8,6,7,166
4.291727,3.101526,10,16,8,9,10,170
2.542695,3.096414,10,16,8,10,11,174
2.154209,3.110333,10,16,8,11,12,178
2.100166,3.100244,10,16,8,12,13,182
2.726757,3.100778,10,16,8,13,14,186
4.178946,3.11315,10,16,8,14,15,190
4.148299,-0.046729,10,1,9,2,3,194
2.673128,-0.048904,10,1,9,3,4,198
2.085271,-0.059551,10,1,9,4,5,202
2.307055,-0.059959,10,1,9,5,6,206
2.673604,-0.048989,10,1,9,6,7,210
4.331869,-0.043904,10,1,9,7,8,214
3.980849,3.101379,10,1,9,10,11,218
2.559835,3.1112,10,1,9,11,12,222
2.117352,3.118097,10,1,9,12,13,226
2.284606,3.105069,10,1,9,13,14,230
2.652159,3.112859,10,1,9,14,15,234
4.27217,3.11411,10,1,9,15,16,238
4.292734,-0.040033,10,2,10,3,4,242
2.490045,-0.053983,10,2,10,4,5,246
2.398124,-0.056848,10,2,10,5,6,250
2.192393,-0.038803,10,2,10,6,7,254
2.635601,-0.042899,10,2,10,7,8,2
3.979554,-0.040132,10,2,10,8,9,6
4.292989,3.101532,10,2,10,11,12,10
2.521925,3.117806,10,2,10,12,13,14
2.284199,3.105154,10,2,10,13,14,18
2.154526,3.110336,10,2,10,14,15,22
2.613564,3.119314,10,2,10,15,16,26
4.347016,3.106516,10,3,11,1,2,30
4.055322,-0.048096,10,3,11,4,5,34
2.857057,-0.044471,10,3,11,5,6,38
2.230384,-0.046095,10,3,11,6,7,42
2.230712,-0.046092,10,3,11,7,8,46
2.559835,-0.030393,10,3,11,8,9,50
4.239324,-0.045201,10,3,11,9,10,54
3.996356,3.110869,10,3,11,12,13,58
2.689608,3.106808,10,3,11,13,14,62
2.154721,3.11022,10,3,11,14,15,66
2.154782,3.11028,10,3,11,15,16,70
2.651694,3.112797,10,4,12,1,2,74
4.088101,3.111801,10,4,12,2,3,78
4.773424,-0.045709,10,4,12,5,6,82
2.764883,-0.046763,10,4,12,6,7,86
2.230195,-0.046274,10,4,12,7,8,90
2.192269,-0.038922,10,4,12,8,9,94
2.597103,-0.036962,10,4,12,9,10,98
4.017543,-0.044386,10,4,12,10,11,102
4.29288,3.101325,10,4,12,13,14,106
2.55969,3.111081,10,4,12,14,15,110
2.154855,3.110045,10,4,12,15,16,114
2.284141,3.104947,10,5,13,1,2,118
2.613882,3.11911,10,5,13,2,3,122
4.621976,3.109561,10,5,13,3,4,126
4.33008,-0.043853,10,5,13,6,7,130
2.581015,-0.051358,10,5,13,7,8,134
2.138381,-0.049023,10,5,13,8,9,138
2.230258,-0.046214,10,5,13,9,10,142
2.489827,-0.054015,10,5,13,10,11,146
4.200963,-0.041493,10,5,13,11,12,150
4.293123,3.101444,10,5,13,14,15,154
2.55961,3.111169,10,5,13,15,16,158
2.24663,3.112376,10,6,14,1,2,162
2.117167,3.118066,10,6,14,2,3,166
2.743786,3.114603,10,6,14,3,4,170
4.034299,3.106749,10,6,14,4,5,174
4.147559,-0.046644,10,6,14,7,8,178
2.505592,-0.038803,10,6,14,8,9,182
2.176841,-0.056168,10,6,14,9,10,186
2.046771,-0.051995,10,6,14,10,11,190
2.581241,-0.051327,10,6,14,11,12,194
4.017531,-0.044239,10,6,14,12,13,198
4.217604,3.109104,10,6,14,15,16,202
2.652376,3.113185,10,7,15,1,2,206
2.079861,3.126312,10,7,15,2,3,210
2.247031,3.112292,10,7,15,3,4,214
2.506266,3.102589,10,7,15,4,5,218
4.217604,3.109104,10,7,15,5,6,222
4.056171,-0.048268,10,7,15,8,9,226
2.597632,-0.03684,10,7,15,9,10,230
2.10104,-0.041546,10,7,15,10,11,234
2.176848,-0.056315,10,7,15,11,12,238
2.45227,-0.047727,10,7,15,12,13,242
4.331869,-0.043904,10,7,15,13,14,246
4.309551,3.110427,10,8,16,1,2,250
2.521932,3.117659,10,8,16,2,3,254
2.24677,3.112201,10,8,16,3,4,2
2.138823,3.092545,10,8,16,4,5,6
2.689464,3.106542,10,8,16,5,6,10
4.294399,3.101303,10,8,16,6,7,14
4.331624,-0.044023,10,8,16,9,10,18
2.544055,-0.045433,10,8,16,10,11,22
2.215121,-0.063508,10,8,16,11,12,26
2.10123,-0.041662,10,8,16,12,13,30
2.749559,-0.060467,10,8,16,13,14,34
4.202567,-0.041456,10,8,16,14,15,38
4.125305,3.1077,10,9,1,2,3,42
2.651469,3.112619,10,9,1,3,4,46
2.1382,3.092392,10,9,1,4,5,50
2.375822,3.10701,10,9,1,5,6,54
2.780732,3.10823,10,9,1,6,7,58
4.308821,3.11007,10,9,1,7,8,62
4.016248,-0.044451,10,9,1,10,11,66
2.58095,-0.051564,10,9,1,11,12,70
2.100487,-0.04164,10,9,1,12,13,74
2.306174,-0.059996,10,9,1,13,14,78
2.634677,-0.043023,10,9,1,14,15,82
4.314751,-0.052688,10,9,1,15,16,86
4.253588,3.105143,10,10,2,3,4,90
2.542631,3.096208,10,10,2,4,5,94
2.412884,3.100368,10,10,2,5,6,98
2.283198,3.104998,10,10,2,6,7,102
2.613498,3.119107,10,10,2,7,8,106
4.011167,3.120041,10,10,2,8,9,110
4.329064,-0.043887,10,10,2,11,12,114
2.504791,-0.039016,10,10,2,12,13,118
2.305496,-0.060002,10,10,2,13,14,122
2.229463,-0.046045,10,10,2,14,15,126
2.634051,-0.04291,10,10,2,15,16,130
4.366971,-0.047699,10,11,3,1,2,134
4.016123,3.097229,10,11,3,4,5,138
2.855724,3.096906,10,11,3,5,6,142
2.283469,3.104941,10,11,3,6,7,146
2.20841,3.119574,10,11,3,7,8,150
2.521048,3.117534,10,11,3,8,9,154
4.270431,3.113867,10,11,3,9,10,158
4.032645,-0.03494,10,11,3,12,13,162
2.710829,-0.054976,10,11,3,13,14,166
2.192207,-0.038981,10,11,3,14,15,170
2.229728,-0.046101,10,11,3,15,16,174
2.672047,-0.049294,10,12,4,1,2,178
4.145637,-0.047006,10,12,4,2,3,182
4.771347,3.095581,10,12,4,5,6,186
2.742111,3.114238,10,12,4,6,7,190
2.208023,3.119512,10,12,4,7,8,194
2.153972,3.109949,10,12,4,8,9,198
2.558641,3.110985,10,12,4,9,10,202
4.032656,3.106505,10,12,4,10,11,206
4.291752,-0.040361,10,12,4,13,14,210
2.59634,-0.036968,10,12,4,14,15,214
2.19124,-0.03899,10,12,4,15,16,218
2.305287,-0.059886,10,13,5,1,2,222
2.633895,-0.042882,10,13,5,2,3,226
4.68015,-0.046914,10,13,5,3,4,230
4.291095,3.101523,10,13,5,6,7,234
2.55893,3.111222,10,13,5,7,8,238
2.115981,3.118114,10,13,5,8,9,242
2.191364,3.102721,10,13,5,9,10,246
2.467266,3.10932,10,13,5,10,11,250
4.17871,3.113031,10,13,5,11,12,254
4.237586,-0.045297,10,13,5,14,15,2
2.580643,-0.051508,10,13,5,15,16,6
2.268102,-0.053354,10,14,6,1,2,10
2.154221,-0.031553,10,14,6,2,3,14
2.726287,-0.041024,10,14,6,3,4,18
4.039323,-0.057815,10,14,6,4,5,22
4.141615,3.11698,10,14,6,7,8,26
2.52179,3.11754,10,14,6,8,9,30
2.154282,3.110099,10,14,6,9,10,34
2.024881,3.115972,10,14,6,10,11,38
2.559386,3.111137,10,14,6,11,12,42
3.995892,3.110779,10,14,6,12,13,46
4.216984,-0.032492,10,14,6,15,16,50
2.672341,-0.04891,10,15,7,1,2,54
2.138315,-0.048935,10,15,7,2,3,58
2.26789,-0.053091,10,15,7,3,4,62
2.565647,-0.066108,10,15,7,4,5,66
4.277004,-0.048904,10,15,7,5,6,70
4.033933,3.106865,10,15,7,8,9,74
2.559835,3.1112,10,15,7,9,10,78
2.025294,3.116094,10,15,7,10,11,82
2.192393,3.102789,10,15,7,11,12,86
2.468061,3.109385,10,15,7,12,13,90
4.309308,3.110308,10,15,7,13,14,94
4.329309,-0.043768,10,16,8,1,2,98
2.542695,-0.045178,10,16,8,2,3,102
2.2294,-0.046104,10,16,8,3,4,106
2.214194,-0.063163,10,16,8,4,5,110
2.764304,-0.04659,10,16,8,5,6,114
4.31436,-0.052572,10,16,8,6,7,118
4.254574,3.105325,10,16,8,9,10,122
2.505074,3.102815,10,16,8,10,11,126
2.19207,3.102787,10,16,8,11,12,130
2.062215,3.108019,10,16,8,12,13,134
2.726356,3.100775,10,16,8,13,14,138
4.254321,3.105353,10,16,8,14,15,142
4.147806,-0.046672,10,1,9,2,3,146
2.673604,-0.048989,10,1,9,3,4,150
2.215178,-0.063302,10,1,9,4,5,154
2.436619,-0.063214,10,1,9,5,6,158
2.803091,-0.052259,10,1,9,6,7,162
4.332249,-0.043873,10,1,9,7,8,166
3.980737,3.10132,10,1,9,10,11,170
2.597397,3.104868,10,1,9,11,12,174
2.080114,3.126108,10,1,9,12,13,178
2.285149,3.104956,10,1,9,13,14,182
2.652317,3.112831,10,1,9,14,15,186
4.310966,3.110198,10,1,9,15,16,190
4.368885,-0.047543,10,2,10,3,4,194
2.620213,-0.057352,10,2,10,4,5,198
2.436185,-0.063129,10,2,10,5,6,202
2.398551,-0.056932,10,2,10,6,7,206
2.63537,-0.04293,10,2,10,7,8,210
3.980613,-0.040185,10,2,10,8,9,214
4.309564,3.11028,10,2,10,11,12,218
2.522525,3.117693,10,2,10,12,13,222
2.284063,3.105182,10,2,10,13,14,226
2.208979,3.119962,10,2,10,14,15,230
2.597934,3.104843,10,2,10,15,16,234
4.30982,3.110252,10,3,11,1,2,238
4.055804,-0.048152,10,3,11,4,5,242
2.894744,-0.050025,10,3,11,5,6,246
2.451687,-0.047614,10,3,11,6,7,250
2.192653,-0.03886,10,3,11,7,8,254
2.543969,-0.045198,10,3,11,8,9,2
4.277888,-0.048929,10,3,11,9,10,6
4.034538,3.106721,10,3,11,12,13,10
2.689852,3.106692,10,3,11,13,14,14
2.20951,3.119702,10,3,11,14,15,18
2.20931,3.119818,10,3,11,15,16,22
2.651852,3.112769,10,4,12,1,2,26
4.126145,3.107821,10,4,12,2,3,30
4.774141,-0.045853,10,4,12,5,6,34
2.89467,-0.050232,10,4,12,6,7,38
2.230195,-0.046274,10,4,12,7,8,42
2.138448,-0.04911,10,4,12,8,9,46
2.581249,-0.051474,10,4,12,9,10,50
4.055104,-0.048362,10,4,12,10,11,54
4.292504,3.101294,10,4,12,13,14,58
2.613261,3.119223,10,4,12,14,15,62
2.154282,3.110099,10,4,12,15,16,66
2.283605,3.104913,10,5,13,1,2,70
2.613572,3.119167,10,5,13,2,3,74
4.621701,3.109589,10,5,13,3,4,78
4.330338,-0.043881,10,5,13,6,7,82
2.580869,-0.051477,10,5,13,7,8,86
2.062763,-0.033627,10,5,13,8,9,90
2.17601,-0.056205,10,5,13,9,10,94
2.451257,-0.047676,10,5,13,10,11,98
4.184901,-0.050447,10,5,13,11,12,102
4.163025,3.104055,10,5,13,14,15,106
2.559458,3.111197,10,5,13,15,16,110
2.246827,3.112407,10,6,14,1,2,114
2.117167,3.118066,10,6,14,2,3,118
2.689532,3.106749,10,6,14,3,4,122
4.034059,3.106777,10,6,14,4,5,126
4.164132,-0.037591,10,6,14,7,8,130
2.452124,-0.047698,10,6,14,8,9,134
2.192914,-0.038916,10,6,14,9,10,138
2.047258,-0.052108,10,6,14,10,11,142
2.582009,-0.051468,10,6,14,11,12,146
4.019078,-0.044349,10,6,14,12,13,150
4.218977,3.109022,10,6,14,15,16,154
2.652534,3.113157,10,7,15,1,2,158
2.117598,3.118188,10,7,15,2,3,162
2.193175,3.10262,10,7,15,3,4,166
2.544048,3.096307,10,7,15,4,5,170
4.255838,3.105183,10,7,15,5,6,174
4.056653,-0.048325,10,7,15,8,9,178
2.582009,-0.051468,10,7,15,9,10,182
2.047258,-0.052108,10,7,15,10,11,186
2.214983,-0.063333,10,7,15,11,12,190
2.506038,-0.038888,10,7,15,12,13,194
4.369268,-0.047512,10,7,15,13,14,198
4.255187,3.105475,10,8,16,1,2,202
2.522225,3.117749,10,8,16,2,3,206
2.208729,3.119724,10,8,16,3,4,210
2.176466,3.085215,10,8,16,4,5,214
2.726441,3.100687,10,8,16,5,6,218
4.179077,3.113063,10,8,16,6,7,222
4.238329,-0.045235,10,8,16,9,10,226
2.489686,-0.054134,10,8,16,10,11,230
2.230258,-0.046214,10,8,16,11,12,234
2.138381,-0.049023,10,8,16,12,13,238
2.802687,-0.052409,10,8,16,13,14,242
4.2387,-0.045204,10,8,16,14,15,246
4.123719,3.10781,10,9,1,2,3,250
2.650524,3.112788,10,9,1,3,4,254
2.191692,3.102577,10,9,1,4,5,2
2.413457,3.100255,10,9,1,5,6,6
2.650922,3.112644,10,9,1,6,7,10
4.308321,3.10998,10,9,1,7,8,14
4.016952,-0.044389,10,9,1,10,11,18
2.618991,-0.057567,10,9,1,11,12,22
2.138254,-0.048994,10,9,1,12,13,26
2.344084,-0.066655,10,9,1,13,14,30
2.634834,-0.043052,10,9,1,14,15,34
4.330472,-0.043969,10,9,1,15,16,38
4.307553,3.110065,10,10,2,3,4,42
2.580264,3.090082,10,10,2,4,5,46
2.41274,3.100396,10,10,2,5,6,50
2.245779,3.112192,10,10,2,6,7,54
2.613113,3.119105,10,10,2,7,8,58
3.956751,3.114911,10,10,2,8,9,62
4.328942,-0.043947,10,10,2,11,12,66
2.542703,-0.045325,10,10,2,12,13,70
2.344011,-0.066568,10,10,2,13,14,74
2.229728,-0.046101,10,10,2,14,15,78
2.634595,-0.042936,10,10,2,15,16,82
4.329971,-0.04406,10,11,3,1,2,86
4.03301,3.106537,10,11,3,4,5,90
2.856063,3.09685,10,11,3,5,6,94
2.375399,3.107094,10,11,3,6,7,98
2.208604,3.119606,10,11,3,7,8,102
2.538981,3.132302,10,11,3,8,9,106
4.233232,3.117826,10,11,3,9,10,110
4.033124,-0.034997,10,11,3,12,13,114
2.710668,-0.054948,10,11,3,13,14,118
2.192207,-0.038981,10,11,3,14,15,122
2.229797,-0.046189,10,11,3,15,16,126
2.672047,-0.049294,10,12,4,1,2,130
4.146,-0.046975,10,12,4,2,3,134
4.733617,3.099006,10,12,4,5,6,138
2.871629,3.109858,10,12,4,6,7,142
2.208154,3.119484,10,12,4,7,8,146
2.153844,3.109977,10,12,4,8,9,150
2.558568,3.110925,10,12,4,9,10,154
3.994491,3.110654,10,12,4,10,11,158
4.328942,-0.043947,10,12,4,13,14,162
2.634215,-0.043086,10,12,4,14,15,166
2.19137,-0.039018,10,12,4,15,16,170
2.267089,-0.053069,10,13,5,1,2,174
2.633738,-0.042854,10,13,5,2,3,178
4.641986,-0.043463,10,13,5,3,4,182
4.383112,3.102752,10,13,5,6,7,186
2.558257,3.111129,10,13,5,7,8,190
2.116107,3.118086,10,13,5,8,9,194
2.116047,3.118026,10,13,5,9,10,198
2.391563,3.123034,10,13,5,10,11,202
4.1776,3.113085,10,13,5,11,12,206
4.199347,-0.041383,10,13,5,14,15,210
2.596105,-0.036852,10,13,5,15,16,214
2.267031,-0.053275,10,14,6,1,2,218
2.191172,-0.038903,10,14,6,2,3,222
2.671881,-0.049119,10,14,6,3,4,226
3.999961,-0.053862,10,14,6,4,5,230
4.124325,3.107813,10,14,6,7,8,234
2.521341,3.117625,10,14,6,8,9,238
2.116107,3.118086,10,14,6,9,10,242
2.024039,3.11617,10,14,6,10,11,246
2.558554,3.111219,10,14,6,11,12,250
3.99448,3.110801,10,14,6,12,13,254
4.237705,-0.045238,10,14,6,15,16,2
2.672024,-0.048853,10,15,7,1,2,6
2.137619,-0.048853,10,15,7,2,3,10
2.191357,-0.038724,10,15,7,3,4,14
2.473612,-0.06922,10,15,7,4,5,18
4.275359,-0.048794,10,15,7,5,6,22
4.03286,3.106918,10,15,7,8,9,26
2.559226,3.111313,10,15,7,9,10,30
2.024572,3.116263,10,15,7,10,11,34
2.170629,3.12777,10,15,7,11,12,38
2.504925,3.102843,10,15,7,12,13,42
4.345983,3.106629,10,15,7,13,14,46
4.29135,-0.040098,10,16,8,1,2,50
2.542393,-0.045122,10,16,8,2,3,54
2.191556,-0.03884,10,16,8,3,4,58
2.122586,-0.06676,10,16,8,4,5,62
2.764633,-0.046647,10,16,8,5,6,66
4.184901,-0.050447,10,16,8,6,7,70
4.217103,3.10916,10,16,8,9,10,74
2.467335,3.109379,10,16,8,10,11,78
2.19181,3.102843,10,16,8,11,12,82
2.079008,3.126215,10,16,8,12,13,86
2.726194,3.100803,10,16,8,13,14,90
4.216483,3.109157,10,16,8,14,15,94
4.164014,-0.03765,10,1,9,2,3,98
2.635213,-0.042902,10,1,9,3,4,102
2.122898,-0.066757,10,1,9,4,5,106
2.360087,-0.050273,10,1,9,5,6,110
2.673445,-0.04896,10,1,9,6,7,114
4.331734,-0.043816,10,1,9,7,8,118
3.980849,3.101379,10,1,9,10,11,122
2.597706,3.104812,10,1,9,11,12,126
2.117293,3.118038,10,1,9,12,13,130
2.322708,3.097997,10,1,9,13,14,134
2.652234,3.112919,10,1,9,14,15,138
4.310588,3.110167,10,1,9,15,16,142
4.330852,-0.043938,10,2,10,3,4,146
2.565799,-0.066137,10,2,10,4,5,150
2.398266,-0.056876,10,2,10,5,6,154
2.192585,-0.038772,10,2,10,6,7,158
2.597551,-0.036752,10,2,10,7,8,162
3.980027,-0.040188,10,2,10,8,9,166
4.292734,3.10156,10,2,10,11,12,170
2.522446,3.117781,10,2,10,12,13,174
2.322221,3.09817,10,2,10,13,14,178
2.24663,3.112376,10,2,10,14,15,182
2.614104,3.119289,10,2,10,15,16,186
4.272932,3.114026,10,3,11,1,2,190
4.056045,-0.04818,10,3,11,4,5,194
2.894662,-0.050084,10,3,11,5,6,198
2.230517,-0.046124,10,3,11,6,7,202
2.192585,-0.038772,10,3,11,7,8,206
2.506038,-0.038888,10,3,11,8,9,210
4.277004,-0.048904,10,3,11,9,10,214
3.996593,3.110841,10,3,11,12,13,218
2.689373,3.106777,10,3,11,13,14,222
2.209179,3.119846,10,3,11,14,15,226
2.192591,3.102674,10,3,11,15,16,230
2.651694,3.112797,10,4,12,1,2,234
4.1259,3.10785,10,4,12,2,3,238
4.735411,-0.042402,10,4,12,5,6,242
2.764641,-0.046794,10,4,12,6,7,246
2.192207,-0.038981,10,4,12,7,8,250
2.100422,-0.041552,10,4,12,8,9,254
2.58095,-0.051564,10,4,12,9,10,2
4.017191,-0.044417,10,4,12,10,11,6
4.29237,3.101382,10,4,12,13,14,10
2.596795,3.104687,10,4,12,14,15,14
2.154154,3.110127,10,4,12,15,16,18
2.246173,3.112255,10,5,13,1,2,22
2.613342,3.119136,10,5,13,2,3,26
4.621283,3.109705,10,5,13,3,4,30
4.367847,-0.04743,10,5,13,6,7,34
2.596787,-0.036758,10,5,13,7,8,38
2.100172,-0.041496,10,5,13,8,9,42
2.100172,-0.041496,10,5,13,9,10,46
2.451549,-0.047732,10,5,13,10,11,50
4.200463,-0.041436,10,5,13,11,12,54
4.124429,3.108019,10,5,13,14,15,58
2.596787,3.104834,10,5,13,15,16,62
2.24663,3.112376,10,6,14,1,2,66
2.15491,3.110252,10,6,14,2,3,70
2.689213,3.106805,10,6,14,3,4,74
3.942002,3.105529,10,6,14,4,5,78
4.147313,-0.046616,10,6,14,7,8,82
2.467845,-0.032239,10,6,14,8,9,86
2.100725,-0.041402,10,6,14,9,10,90
2.046835,-0.052083,10,6,14,10,11,94
2.581775,-0.051352,10,6,14,11,12,98
4.017645,-0.04418,10,6,14,12,13,102
4.217103,3.10916,10,6,14,15,16,106
2.651828,3.11321,10,7,15,1,2,110
2.155093,3.11043,10,7,15,2,3,114
2.154721,3.11022,10,7,15,3,4,118
2.468215,3.10921,10,7,15,4,5,122
4.255332,3.10524,10,7,15,5,6,126
4.018839,-0.044321,10,7,15,8,9,130
2.544199,-0.045314,10,7,15,9,10,134
2.047322,-0.052196,10,7,15,10,11,138
2.176718,-0.056287,10,7,15,11,12,142
2.506485,-0.038973,10,7,15,12,13,146
4.3542,-0.056225,10,7,15,13,14,150
4.25544,3.105446,10,8,16,1,2,154
2.521854,3.117746,10,8,16,2,3,158
2.117113,3.11786,10,8,16,3,4,162
2.062769,3.107818,10,8,16,4,5,166
2.727089,3.100574,10,8,16,5,6,170
4.216984,3.109101,10,8,16,6,7,174
4.239588,-0.045376,10,8,16,9,10,178
2.451625,-0.04782,10,8,16,10,11,182
2.176466,-0.056378,10,8,16,11,12,186
2.100731,-0.041549,10,8,16,12,13,190
2.749318,-0.060499,10,8,16,13,14,194
4.239204,-0.04526,10,8,16,14,15,198
4.162189,3.103786,10,9,1,2,3,202
2.59703,3.104571,10,9,1,3,4,206
2.062343,3.107844,10,9,1,4,5,210
2.283669,3.104972,10,9,1,5,6,214
2.650764,3.112672,10,9,1,6,7,218
4.308699,3.110011,10,9,1,7,8,222
3.978992,-0.040429,10,9,1,10,11,226
2.58095,-0.051564,10,9,1,11,12,230
2.100612,-0.041668,10,9,1,12,13,234
2.397568,-0.057029,10,9,1,13,14,238
2.673135,-0.049051,10,9,1,14,15,242
4.315142,-0.052804,10,9,1,15,16,246
4.291994,3.10135,10,10,2,3,4,250
2.50494,3.102549,10,10,2,4,5,254
2.321341,3.097985,10,10,2,5,6,2
2.191885,3.102608,10,10,2,6,7,6
2.575879,3.125665,10,10,2,7,8,10
3.957221,3.114855,10,10,2,8,9,14
4.291618,-0.040273,10,10,2,11,12,18
2.542631,-0.045385,10,10,2,12,13,22
2.382008,-0.073016,10,10,2,13,14,26
2.229595,-0.046073,10,10,2,14,15,30
2.63429,-0.043026,10,10,2,15,16,34
4.313616,-0.052782,10,11,3,1,2,38
4.0166,3.097173,10,11,3,4,5,42
2.855894,3.096878,10,11,3,5,6,46
2.282998,3.104967,10,11,3,6,7,50
2.170838,3.12736,10,11,3,7,8,54
2.52112,3.117594,10,11,3,8,9,58
4.25384,3.105115,10,11,3,9,10,62
4.033124,-0.034997,10,11,3,12,13,66
2.748922,-0.060649,10,11,3,13,14,70
2.229993,-0.046158,10,11,3,14,15,74
2.230125,-0.046186,10,11,3,15,16,78
2.634305,-0.04332,10,12,4,1,2,82
4.146246,-0.047003,10,12,4,2,3,86
4.696365,3.102371,10,12,4,5,6,90
2.742514,3.114241,10,12,4,6,7,94
2.208086,3.119572,10,12,4,7,8,98
2.116,3.117673,10,12,4,8,9,102
2.55872,3.110897,10,12,4,9,10,106
3.994853,3.110538,10,12,4,10,11,110
4.329456,-0.044003,10,12,4,13,14,114
2.634297,-0.043173,10,12,4,14,15,118
2.175574,-0.056474,10,12,4,15,16,122
2.267089,-0.053069,10,13,5,1,2,126
2.63382,-0.042942,10,13,5,2,3,130
4.641304,-0.043466,10,13,5,3,4,134
4.253323,3.105319,10,13,5,6,7,138
2.596332,3.104772,10,13,5,7,8,142
2.041442,3.134488,10,13,5,8,9,146
2.041321,3.134516,10,13,5,9,10,150
2.4295,3.115969,10,13,5,10,11,154
4.1776,3.113085,10,13,5,11,12,158
4.199478,-0.04147,10,13,5,14,15,162
2.596178,-0.036792,10,13,5,15,16,166
2.213681,-0.063344,10,14,6,1,2,170
2.191692,-0.039016,10,14,6,2,3,174
2.71043,-0.054979,10,14,6,3,4,178
3.909107,-0.055617,10,14,6,4,5,182
4.12506,3.107728,10,14,6,7,8,186
2.429713,3.116,10,14,6,8,9,190
2.062524,3.107875,10,14,6,9,10,194
2.024584,3.115969,10,14,6,10,11,198
2.521333,3.117772,10,14,6,11,12,202
3.99518,3.110863,10,14,6,12,13,206
4.237957,-0.045266,10,14,6,15,16,210
2.634513,-0.042848,10,15,7,1,2,214
2.192132,-0.038747,10,15,7,2,3,218
2.229923,-0.04607,10,15,7,3,4,222
2.473836,-0.069336,10,15,7,4,5,226
4.276242,-0.048819,10,15,7,5,6,230
3.996231,3.110957,10,15,7,8,9,234
2.559531,3.111256,10,15,7,9,10,238
2.025053,3.11615,10,15,7,10,11,242
2.154526,3.110336,10,15,7,11,12,246
2.467552,3.10941,10,15,7,12,13,250
4.308795,3.110365,10,15,7,13,14,254
4.291605,-0.040126,10,16,8,1,2,2
2.542544,-0.04515,10,16,8,2,3,6
2.191357,-0.038724,10,16,8,3,4,10
2.030588,-0.070657,10,16,8,4,5,14
2.748424,-0.060417,10,16,8,5,6,18
4.199833,-0.041292,10,16,8,6,7,22
4.216602,3.109217,10,16,8,9,10,26
2.429417,3.116204,10,16,8,10,11,30
2.153953,3.11039,10,16,8,11,12,34
2.154081,3.110362,10,16,8,12,13,38
2.726356,3.100775,10,16,8,13,14,42
4.178946,3.11315,10,16,8,14,15,46
4.164132,-0.037591,10,1,9,2,3,50
2.673604,-0.048989,10,1,9,3,4,54
2.085395,-0.059579,10,1,9,4,5,58
2.360574,-0.050298,10,1,9,5,6,62
2.673839,-0.048957,10,1,9,6,7,66
4.331354,-0.043847,10,1,9,7,8,70
3.980151,3.101317,10,1,9,10,11,74
2.55961,3.111169,10,1,9,11,12,78
2.117418,3.11801,10,1,9,12,13,82
2.376299,3.107278,10,1,9,13,14,86
2.651769,3.112856,10,1,9,14,15,90
4.271542,3.114108,10,1,9,15,16,94
4.330203,-0.043794,10,2,10,3,4,98
2.527468,-0.060111,10,2,10,4,5,102
2.359666,-0.050188,10,2,10,5,6,106
2.268359,-0.053116,10,2,10,6,7,110
2.619287,-0.05733,10,2,10,7,8,114
3.942113,-0.036004,10,2,10,8,9,118
4.309685,3.110339,10,2,10,11,12,122
2.522225,3.117749,10,2,10,12,13,126
2.376017,3.107335,10,2,10,13,14,130
2.24656,3.112464,10,2,10,14,15,134
2.613793,3.119345,10,2,10,15,16,138
4.272291,3.11417,10,3,11,1,2,142
4.002065,-0.053675,10,3,11,4,5,146
2.840904,-0.057812,10,3,11,5,6,150
2.28447,-0.036496,10,3,11,6,7,154
2.230649,-0.046152,10,3,11,7,8,158
2.505372,-0.038834,10,3,11,8,9,162
4.276883,-0.048963,10,3,11,9,10,166
3.995881,3.110926,10,3,11,12,13,170
2.726996,3.100809,10,3,11,13,14,174
2.192269,3.102671,10,3,11,14,15,178
2.208847,3.11999,10,3,11,15,16,182
2.651146,3.112822,10,4,12,1,2,186
4.125293,3.107847,10,4,12,2,3,190
4.773141,-0.045681,10,4,12,5,6,194
2.764805,-0.046822,10,4,12,6,7,198
2.230062,-0.046245,10,4,12,7,8,202
2.138762,-0.049107,10,4,12,8,9,206
2.581709,-0.051558,10,4,12,9,10,210
4.01802,-0.044443,10,4,12,10,11,214
4.309454,3.110073,10,4,12,13,14,218
2.559922,3.110965,10,4,12,14,15,222
2.154727,3.110073,10,4,12,15,16,226
2.208991,3.119668,10,5,13,1,2,230
2.614267,3.119113,10,5,13,2,3,234
4.622786,3.109623,10,5,13,3,4,238
4.254959,-0.036384,10,5,13,6,7,242
2.597787,-0.036868,10,5,13,7,8,246
2.100606,-0.041521,10,5,13,8,9,250
2.138442,-0.048963,10,5,13,9,10,254
2.452055,-0.047758,10,5,13,10,11,2
4.147935,-0.04676,10,5,13,11,12,6
4.201699,3.100162,10,5,13,14,15,10
2.597941,3.104696,10,5,13,15,16,14
2.209635,3.119821,10,6,14,1,2,18
2.171913,3.127635,10,6,14,2,3,22
2.727722,3.100756,10,6,14,3,4,26
3.94247,3.105473,10,6,14,4,5,30
4.202817,-0.041484,10,6,14,7,8,34
2.490341,-0.05404,10,6,14,8,9,38
2.101099,-0.041487,10,6,14,9,10,42
2.047015,-0.052052,10,6,14,10,11,46
2.581702,-0.051411,10,6,14,11,12,50
4.132565,-0.055908,10,6,14,12,13,54
4.217974,3.109135,10,6,14,15,16,58
2.636212,3.098875,10,7,15,1,2,62
2.155221,3.110402,10,7,15,2,3,66
2.247298,3.112235,10,7,15,3,4,70
2.338977,3.114136,10,7,15,4,5,74
4.256344,3.105127,10,7,15,5,6,78
3.980624,-0.040333,10,7,15,8,9,82
2.560443,-0.030506,10,7,15,9,10,86
2.063131,-0.033712,10,7,15,10,11,90
2.139392,-0.049102,10,7,15,11,12,94
2.54435,-0.045342,10,7,15,12,13,98
4.332384,-0.04396,10,7,15,13,14,102
4.25544,3.105446,10,8,16,1,2,106
2.559762,3.11114,10,8,16,2,3,110
2.230258,3.095379,10,8,16,3,4,114
1.987669,3.124378,10,8,16,4,5,118
2.68938,3.10663,10,8,16,5,6,122
4.18007,3.11295,10,8,16,6,7,126
4.255718,-0.036469,10,8,16,9,10,130
2.451771,-0.047848,10,8,16,10,11,134
2.176657,-0.056347,10,8,16,11,12,138
2.138762,-0.049107,10,8,16,12,13,142
2.749482,-0.060527,10,8,16,13,14,146
4.201712,-0.041578,10,8,16,14,15,150
4.163167,3.103821,10,9,1,2,3,154
2.650997,3.112704,10,9,1,3,4,158
1.987382,3.124228,10,9,1,4,5,162
2.284012,3.104828,10,9,1,5,6,166
2.689069,3.10654,10,9,1,6,7,170
4.308955,3.109983,10,9,1,7,8,174
3.979577,-0.040426,10,9,1,10,11,178
2.581183,-0.05168,10,9,1,11,12,182
2.15441,-0.031522,10,9,1,12,13,186
2.39771,-0.057057,10,9,1,13,14,190
2.634834,-0.043052,10,9,1,14,15,194
4.276896,-0.04911,10,9,1,15,16,198
4.291363,3.101347,10,10,2,3,4,202
2.466694,3.109139,10,10,2,4,5,206
2.245379,3.112277,10,10,2,5,6,210
2.245512,3.112249,10,10,2,6,7,214
2.612648,3.119189,10,10,2,7,8,218
3.956874,3.114824,10,10,2,8,9,222
4.291484,-0.040186,10,10,2,11,12,226
2.580264,-0.051511,10,10,2,12,13,230
2.396998,-0.056916,10,10,2,13,14,234
2.267429,-0.053213,10,10,2,14,15,238
2.634446,-0.043054,10,10,2,15,16,242
4.313494,-0.052841,10,11,3,1,2,246
3.940977,3.105289,10,11,3,4,5,250
2.780645,3.108318,10,11,3,5,6,254
2.246243,3.112167,10,11,3,6,7,2
2.208604,3.119606,10,11,3,7,8,6
2.446999,3.131154,10,11,3,8,9,10
4.27118,3.113929,10,11,3,9,10,14
4.146715,-0.046766,10,11,3,12,13,18
2.764477,-0.046766,10,11,3,13,14,22
2.230062,-0.046245,10,11,3,14,15,26
2.192015,-0.039013,10,11,3,15,16,30
2.672047,-0.049294,10,12,4,1,2,34
4.145637,-0.047006,10,12,4,2,3,38
4.732921,3.099004,10,12,4,5,6,42
2.742111,3.114238,10,12,4,6,7,46
2.245455,3.112042,10,12,4,7,8,50
2.078591,3.125947,10,12,4,8,9,54
2.575282,3.125484,10,12,4,9,10,58
3.994254,3.110682,10,12,4,10,11,62
4.329211,-0.044122,10,12,4,13,14,66
2.634141,-0.043145,10,12,4,14,15,70
2.175574,-0.056474,10,12,4,15,16,74
2.2294,-0.046104,10,13,5,1,2,78
2.633977,-0.04297,10,13,5,2,3,82
4.642958,-0.043636,10,13,5,3,4,86
4.291982,3.101497,10,13,5,6,7,90
2.59656,3.104803,10,13,5,7,8,94
2.041321,3.134516,10,13,5,8,9,98
2.115981,3.118114,10,13,5,9,10,102
2.429067,3.116054,10,13,5,10,11,106
4.140268,3.117062,10,13,5,11,12,110
4.198611,-0.041445,10,13,5,14,15,114
2.596178,-0.036792,10,13,5,15,16,118
2.229602,-0.04622,10,14,6,1,2,122
2.191953,-0.039072,10,14,6,2,3,126
2.764078,-0.046916,10,14,6,3,4,130
3.947426,-0.059589,10,14,6,4,5,134
4.162307,3.103846,10,14,6,7,8,138
2.446708,3.13121,10,14,6,8,9,142
2.078956,3.126009,10,14,6,9,10,146
2.062279,3.107931,10,14,6,10,11,150
2.558937,3.111075,10,14,6,11,12,154
4.124313,3.10796,10,14,6,12,13,158
4.199846,-0.041439,10,14,6,15,16,162
2.634669,-0.042876,10,15,7,1,2,166
2.192201,-0.038834,10,15,7,2,3,170
2.306239,-0.059937,10,15,7,3,4,174
2.284199,-0.036439,10,15,7,4,5,178
4.27675,-0.048876,10,15,7,5,6,182
3.996118,3.110897,10,15,7,8,9,186
2.521704,3.117775,10,15,7,9,10,190
2.062699,3.108053,10,15,7,10,11,194
2.154654,3.110308,10,15,7,11,12,198
2.467915,3.109413,10,15,7,12,13,202
4.308539,3.110393,10,15,7,13,14,206
4.253948,-0.036271,10,16,8,1,2,210
2.580482,-0.051332,10,16,8,2,3,214
2.267223,-0.053097,10,16,8,3,4,218
1.970594,-0.036038,10,16,8,4,5,222
2.672417,-0.04885,10,16,8,5,6,226
4.238197,-0.045147,10,16,8,6,7,230
4.254321,3.105353,10,16,8,9,10,234
2.467335,3.109379,10,16,8,10,11,238
2.191618,3.102812,10,16,8,11,12,242
2.079132,3.126187,10,16,8,12,13,246
2.726356,3.100775,10,16,8,13,14,250
4.178946,3.11315,10,16,8,14,15,254
4.201699,-0.04143,10,1,9,2,3,2
2.673521,-0.048901,10,1,9,3,4,6
1.993304,-0.063217,10,1,9,4,5,10
2.230977,-0.046149,10,1,9,5,6,14
2.635683,-0.042986,10,1,9,6,7,18
4.331734,-0.043816,10,1,9,7,8,22
3.943285,3.105447,10,1,9,10,11,26
2.597934,3.104843,10,1,9,11,12,30
2.100975,3.100134,10,1,9,12,13,34
2.376864,3.107165,10,1,9,13,14,38
2.614725,3.119176,10,1,9,14,15,42
4.272545,3.114142,10,1,9,15,16,46
4.33046,-0.043822,10,2,10,3,4,50
2.360154,-0.050213,10,2,10,4,5,54
2.268423,-0.053057,10,2,10,5,6,58
2.230447,-0.046036,10,2,10,6,7,62
2.635601,-0.042899,10,2,10,7,8,66
3.926113,-0.045709,10,2,10,8,9,70
4.255453,3.105299,10,2,10,11,12,74
2.505592,3.102789,10,2,10,12,13,78
2.37595,3.107275,10,2,10,13,14,82
2.209179,3.119846,10,2,10,14,15,86
2.614333,3.11932,10,2,10,15,16,90
4.272424,3.114082,10,3,11,1,2,94
3.986733,-0.063305,10,3,11,4,5,98
2.72756,-0.040809,10,3,11,5,6,102
2.322293,-0.043511,10,3,11,6,7,106
2.230712,-0.046092,10,3,11,7,8,110
2.506109,-0.038829,10,3,11,8,9,114
4.331354,-0.043847,10,3,11,9,10,118
4.109791,3.098731,10,3,11,12,13,122
2.727722,3.100756,10,3,11,13,14,126
2.209179,3.119846,10,3,11,14,15,130
2.209573,3.119761,10,3,11,15,16,134
2.651536,3.112825,10,4,12,1,2,138
4.142353,3.116895,10,4,12,2,3,142
4.736255,-0.042487,10,4,12,5,6,146
2.802687,-0.052409,10,4,12,6,7,150
2.268365,-0.053263,10,4,12,7,8,154
2.100731,-0.041549,10,4,12,8,9,158
2.635378,-0.043077,10,4,12,9,10,162
4.017657,-0.044327,10,4,12,10,11,166
4.29288,3.101325,10,4,12,13,14,170
2.597331,3.104662,10,4,12,14,15,174
2.171219,3.127422,10,4,12,15,16,178
2.246103,3.112342,10,5,13,1,2,182
2.613956,3.11917,10,5,13,2,3,186
4.622093,3.109767,10,5,13,3,4,190
4.292747,-0.04018,10,5,13,6,7,194
2.597177,-0.036902,10,5,13,7,8,198
2.062705,-0.033687,10,5,13,8,9,202
2.17646,-0.056231,10,5,13,9,10,206
2.451549,-0.047732,10,5,13,10,11,210
4.147079,-0.046734,10,5,13,11,12,214
4.201081,3.100159,10,5,13,14,15,218
2.559386,3.111137,10,5,13,15,16,222
2.209047,3.119874,10,6,14,1,2,226
2.208916,3.119903,10,6,14,2,3,230
2.743219,3.114628,10,6,14,3,4,234
3.941656,3.105498,10,6,14,4,5,238
4.200582,-0.041377,10,6,14,7,8,242
2.413586,-0.041072,10,6,14,8,9,246
2.138375,-0.048876,10,6,14,9,10,250
2.084599,-0.059616,10,6,14,10,11,254
2.619131,-0.057301,10,6,14,11,12,2
4.092941,-0.051998,10,6,14,12,13,6
4.179195,3.113122,10,6,14,15,16,10
2.651281,3.113235,10,7,15,1,2,14
2.171907,3.127782,10,7,15,2,3,18
2.284742,3.10504,10,7,15,3,4,22
2.17179,3.127516,10,7,15,4,5,26
4.217986,3.108988,10,7,15,5,6,30
3.980624,-0.040333,10,7,15,8,9,34
2.581936,-0.051527,10,7,15,9,10,38
2.08503,-0.059642,10,7,15,10,11,42
2.214852,-0.063305,10,7,15,11,12,46
