BIOZ1_TOMO,EXC_FREQ_KHZ,GND_OUTPUT,EXC_OUTPUT,SENSE_OUTPUT,PACKET_NUMBER
91.02398575092501,10,2,7,8,197
90.9780038999121,10,2,7,8,198
91.0223819508472,10,2,7,8,199
91.0223819508472,10,2,7,8,200
91.01650615112503,10,2,7,8,201
91.0181096406254,10,2,7,8,202
90.98387742099341,10,2,7,8,203
90.9764011169649,10,2,7,8,204
91.02398575092501,10,2,7,8,205
91.0181096406254,10,2,7,8,206
91.0181096406254,10,2,7,8,207
90.9764011169649,10,2,7,8,208
90.98227432760562,10,2,7,8,209
90.98227432760562,10,2,7,8,210
90.9764011169649,10,2,7,8,211
91.01650615112503,10,2,7,8,212
91.01650615112503,10,2,7,8,213
91.01650615112503,10,2,7,8,214
91.01650615112503,10,2,7,8,215
91.01650615112503,10,2,7,8,216
91.0223819508472,10,2,7,8,217
91.02398575092501,10,2,7,8,218
90.98227432760562,10,2,7,8,219
91.0223819508472,10,2,7,8,220
91.0223819508472,10,2,7,8,221
91.0223819508472,10,2,7,8,222
91.02398575092501,10,2,7,8,223
91.01650615112503,10,2,7,8,224
91.01650615112503,10,2,7,8,225
91.01650615112503,10,2,7,8,226
91.01650615112503,10,2,7,8,227
91.0223819508472,10,2,7,8,228
91.02398575092501,10,2,7,8,229
91.0223819508472,10,2,7,8,230
91.0181096406254,10,2,7,8,231
91.02398575092501,10,2,7,8,232
91.01650615112503,10,2,7,8,233
91.01650615112503,10,2,7,8,234
90.99414602670852,10,2,7,8,235
91.0223819508472,10,2,7,8,236
91.01650615112503,10,2,7,8,237
91.0223819508472,10,2,7,8,238
91.0223819508472,10,2,7,8,239
91.0181096406254,10,2,7,8,240
91.01650615112503,10,2,7,8,241
90.98387742099341,10,2,7,8,242
91.0181096406254,10,2,7,8,243
91.0223819508472,10,2,7,8,244
91.0223819508472,10,2,7,8,245
91.02398575092501,10,2,7,8,246
91.02398575092501,10,2,7,8,247
90.9764011169649,10,2,7,8,248
91.0223819508472,10,2,7,8,249
91.0223819508472,10,2,7,8,250
90.9780038999121,10,2,7,8,251
91.01650615112503,10,2,7,8,252
91.0223819508472,10,2,7,8,253
91.0223819508472,10,2,7,8,254
91.0181096406254,10,2,7,8,255
91.02398575092501,10,2,7,8,0
91.0181096406254,10,2,7,8,1
91.0223819508472,10,2,7,8,2
91.01650615112503,10,2,7,8,3
90.98387742099341,10,2,7,8,4
90.98387742099341,10,2,7,8,5
91.0181096406254,10,2,7,8,6
91.02398575092501,10,2,7,8,7
91.0223819508472,10,2,7,8,8
90.98227432760562,10,2,7,8,9
91.0181096406254,10,2,7,8,10
91.0223819508472,10,2,7,8,11
91.02398575092501,10,2,7,8,12
91.01650615112503,10,2,7,8,13
91.02398575092501,10,2,7,8,14
90.98227432760562,10,2,7,8,15
91.0181096406254,10,2,7,8,16
91.0181096406254,10,2,7,8,17
91.0223819508472,10,2,7,8,18
90.98227432760562,10,2,7,8,19
91.0181096406254,10,2,7,8,20
90.9780038999121,10,2,7,8,21
91.0223819508472,10,2,7,8,22
90.9764011169649,10,2,7,8,23
90.98387742099341,10,2,7,8,24
91.01650615112503,10,2,7,8,25
90.98227432760562,10,2,7,8,26
90.98227432760562,10,2,7,8,27
91.01650615112503,10,2,7,8,28
91.0223819508472,10,2,7,8,29
90.98227432760562,10,2,7,8,30
90.9764011169649,10,2,7,8,31
91.01650615112503,10,2,7,8,32
90.9764011169649,10,2,7,8,33
90.98387742099341,10,2,7,8,34
90.98227432760562,10,2,7,8,35
90.98387742099341,10,2,7,8,36
90.9780038999121,10,2,7,8,37
91.0223819508472,10,2,7,8,38
90.9764011169649,10,2,7,8,39
90.98227432760562,10,2,7,8,40
91.01650615112503,10,2,7,8,41
91.0181096406254,10,2,7,8,42
90.98227432760562,10,2,7,8,43
90.9780038999121,10,2,7,8,44
90.98227432760562,10,2,7,8,45
90.9780038999121,10,2,7,8,46
90.9764011169649,10,2,7,8,47
91.01650615112503,10,2,7,8,48
90.98227432760562,10,2,7,8,49
90.98227432760562,10,2,7,8,50
90.98227432760562,10,2,7,8,51
91.0223819508472,10,2,7,8,52
90.98227432760562,10,2,7,8,53
90.9764011169649,10,2,7,8,54
90.9764011169649,10,2,7,8,55
90.98227432760562,10,2,7,8,56
90.9764011169649,10,2,7,8,57
90.9764011169649,10,2,7,8,58
90.9764011169649,10,2,7,8,59
90.9764011169649,10,2,7,8,60
90.9780038999121,10,2,7,8,61
90.98387742099341,10,2,7,8,62
90.98387742099341,10,2,7,8,63
90.98387742099341,10,2,7,8,64
91.01650615112503,10,2,7,8,65
1.6459647888508924,10,2,8,1,67
1.6461000543695772,10,2,8,1,68
1.6650110404200977,10,2,8,1,69
1.6651185294000912,10,2,8,1,70
1.6459937930958677,10,2,8,1,71
1.6459937930958677,10,2,8,1,72
1.6475869476482914,10,2,8,1,73
1.6650110404200977,10,2,8,1,74
1.647693311772104,10,2,8,1,75
1.6650110404200977,10,2,8,1,76
1.6475869476482914,10,2,8,1,77
1.6650110404200977,10,2,8,1,78
1.6697315096067058,10,2,8,1,79
1.6459937930958677,10,2,8,1,80
1.6832940626881603,10,2,8,1,81
1.685889737418405,10,2,8,1,82
1.6650110404200977,10,2,8,1,83
1.6650110404200977,10,2,8,1,84
1.6651185294000912,10,2,8,1,85
1.6272917470907686,10,2,8,1,86
1.6272917470907686,10,2,8,1,87
1.6650110404200977,10,2,8,1,88
1.6459647888508924,10,2,8,1,89
1.6461000543695772,10,2,8,1,90
1.6459937930958677,10,2,8,1,91
1.6651185294000912,10,2,8,1,92
1.6650110404200977,10,2,8,1,93
1.685889737418405,10,2,8,1,94
1.6651185294000912,10,2,8,1,95
1.702921965737861,10,2,8,1,96
1.6832940626881603,10,2,8,1,97
1.6459647888508924,10,2,8,1,98
1.646022791503701,10,2,8,1,99
1.664981701070031,10,2,8,1,100
1.6650110404200977,10,2,8,1,101
1.6271867062319045,10,2,8,1,102
1.6459937930958677,10,2,8,1,103
1.6272917470907686,10,2,8,1,104
1.6459937930958677,10,2,8,1,105
1.664981701070031,10,2,8,1,106
1.664981701070031,10,2,8,1,107
1.6650110404200977,10,2,8,1,108
1.6859985742752526,10,2,8,1,109
1.664981701070031,10,2,8,1,110
1.6459937930958677,10,2,8,1,111
1.664903564799935,10,2,8,1,112
1.6832940626881603,10,2,8,1,113
1.6650110404200977,10,2,8,1,114
1.6459937930958677,10,2,8,1,115
1.6650110404200977,10,2,8,1,116
1.6651185294000912,10,2,8,1,117
1.664981701070031,10,2,8,1,118
1.702921965737861,10,2,8,1,119
1.664981701070031,10,2,8,1,120
1.6650110404200977,10,2,8,1,121
1.702891958355041,10,2,8,1,122
1.6460710445070117,10,2,8,1,123
1.6650110404200977,10,2,8,1,124
1.6832940626881603,10,2,8,1,125
1.6832940626881603,10,2,8,1,126
1.6831854069081615,10,2,8,1,127
1.6088120394403893,10,2,8,1,128
1.6655361976766259,10,2,8,1,129
1.6650110404200977,10,2,8,1,130
1.6650110404200977,10,2,8,1,131
1.6090197617638298,10,2,8,1,132
1.6651185294000912,10,2,8,1,133
1.6832940626881603,10,2,8,1,134
1.6651185294000912,10,2,8,1,135
1.6459937930958677,10,2,8,1,136
1.6651185294000912,10,2,8,1,137
1.6650110404200977,10,2,8,1,138
1.6459647888508924,10,2,8,1,139
1.6272917470907686,10,2,8,1,140
1.6272630723966857,10,2,8,1,141
1.646022791503701,10,2,8,1,142
1.6459937930958677,10,2,8,1,143
1.685889737418405,10,2,8,1,144
1.6655361976766259,10,2,8,1,145
1.6459647888508924,10,2,8,1,146
1.6475869476482914,10,2,8,1,147
1.685889737418405,10,2,8,1,148
1.6650110404200977,10,2,8,1,149
1.6461000543695772,10,2,8,1,150
1.6272917470907686,10,2,8,1,151
1.6650110404200977,10,2,8,1,152
1.6650110404200977,10,2,8,1,153
1.6475869476482914,10,2,8,1,154
1.6651185294000912,10,2,8,1,155
1.647693311772104,10,2,8,1,156
1.6650110404200977,10,2,8,1,157
1.6651185294000912,10,2,8,1,158
1.6650110404200977,10,2,8,1,159
1.6461000543695772,10,2,8,1,160
1.6650110404200977,10,2,8,1,161
1.6650110404200977,10,2,8,1,162
1.6475869476482914,10,2,8,1,163
1.6651185294000912,10,2,8,1,164
1.6273968010068087,10,2,8,1,165
45.36195938753818,10,2,8,3,167
45.36195938753818,10,2,8,3,168
45.36195938753818,10,2,8,3,169
45.40206113737933,10,2,8,3,170
45.362758554949345,10,2,8,3,171
45.35903129601289,10,2,8,3,172
45.36195938753818,10,2,8,3,173
45.36195938753818,10,2,8,3,174
45.36195938753818,10,2,8,3,175
45.36195938753818,10,2,8,3,176
45.362758554949345,10,2,8,3,177
45.40206113737933,10,2,8,3,178
45.36195938753818,10,2,8,3,179
45.36195938753818,10,2,8,3,180
45.36195938753818,10,2,8,3,181
45.40206113737933,10,2,8,3,182
45.35903129601289,10,2,8,3,183
45.36195938753818,10,2,8,3,184
45.364887843041885,10,2,8,3,185
45.36195938753818,10,2,8,3,186
45.36195938753818,10,2,8,3,187
45.36195938753818,10,2,8,3,188
45.36195938753818,10,2,8,3,189
45.40206113737933,10,2,8,3,190
45.36116005926114,10,2,8,3,191
45.36195938753818,10,2,8,3,192
45.36195938753818,10,2,8,3,193
45.36195938753818,10,2,8,3,194
45.399130457306384,10,2,8,3,195
45.40206113737933,10,2,8,3,196
45.364887843041885,10,2,8,3,197
45.36195938753818,10,2,8,3,198
45.40206113737933,10,2,8,3,199
45.40206113737933,10,2,8,3,200
45.36195938753818,10,2,8,3,201
45.40499218175248,10,2,8,3,202
45.40206113737933,10,2,8,3,203
45.40499218175248,10,2,8,3,204
45.362758554949345,10,2,8,3,205
45.40206113737933,10,2,8,3,206
45.40206113737933,10,2,8,3,207
45.364887843041885,10,2,8,3,208
45.36116005926114,10,2,8,3,209
45.401261102464765,10,2,8,3,210
45.36195938753818,10,2,8,3,211
45.36195938753818,10,2,8,3,212
45.40206113737933,10,2,8,3,213
45.36195938753818,10,2,8,3,214
45.36195938753818,10,2,8,3,215
45.40206113737933,10,2,8,3,216
45.36195938753818,10,2,8,3,217
45.36195938753818,10,2,8,3,218
45.40206113737933,10,2,8,3,219
45.40206113737933,10,2,8,3,220
45.364887843041885,10,2,8,3,221
45.40499218175248,10,2,8,3,222
45.362758554949345,10,2,8,3,223
45.40499218175248,10,2,8,3,224
45.40419199188584,10,2,8,3,225
45.36195938753818,10,2,8,3,226
45.40206113737933,10,2,8,3,227
45.401261102464765,10,2,8,3,228
45.36195938753818,10,2,8,3,229
45.40206113737933,10,2,8,3,230
45.40206113737933,10,2,8,3,231
45.40206113737933,10,2,8,3,232
45.36195938753818,10,2,8,3,233
45.36195938753818,10,2,8,3,234
45.364887843041885,10,2,8,3,235
45.40206113737933,10,2,8,3,236
45.36195938753818,10,2,8,3,237
45.36195938753818,10,2,8,3,238
45.362758554949345,10,2,8,3,239
45.364887843041885,10,2,8,3,240
45.36195938753818,10,2,8,3,241
45.40206113737933,10,2,8,3,242
45.364887843041885,10,2,8,3,243
45.40206113737933,10,2,8,3,244
45.40206113737933,10,2,8,3,245
45.36195938753818,10,2,8,3,246
45.36195938753818,10,2,8,3,247
45.35010128909008,10,2,8,3,248
45.36195938753818,10,2,8,3,249
45.364887843041885,10,2,8,3,250
45.364887843041885,10,2,8,3,251
45.36116005926114,10,2,8,3,252
45.36195938753818,10,2,8,3,253
45.36195938753818,10,2,8,3,254
45.36195938753818,10,2,8,3,255
45.36195938753818,10,2,8,3,0
45.36116005926114,10,2,8,3,1
45.36195938753818,10,2,8,3,2
45.36195938753818,10,2,8,3,3
45.364887843041885,10,2,8,3,4
45.36116005926114,10,2,8,3,5
45.364887843041885,10,2,8,3,6
45.364887843041885,10,2,8,3,7
45.36195938753818,10,2,8,3,8
45.364887843041885,10,2,8,3,9
45.36195938753818,10,2,8,4,11
45.36116005926114,10,2,8,4,12
45.36195938753818,10,2,8,4,13
45.36195938753818,10,2,8,4,14
45.36195938753818,10,2,8,4,15
45.36195938753818,10,2,8,4,16
45.36195938753818,10,2,8,4,17
45.40206113737933,10,2,8,4,18
45.364887843041885,10,2,8,4,19
45.36195938753818,10,2,8,4,20
45.36195938753818,10,2,8,4,21
45.36116005926114,10,2,8,4,22
45.401261102464765,10,2,8,4,23
45.36195938753818,10,2,8,4,24
45.36195938753818,10,2,8,4,25
45.36195938753818,10,2,8,4,26
45.36195938753818,10,2,8,4,27
45.40206113737933,10,2,8,4,28
45.36195938753818,10,2,8,4,29
45.36195938753818,10,2,8,4,30
45.364887843041885,10,2,8,4,31
45.36195938753818,10,2,8,4,32
45.40206113737933,10,2,8,4,33
45.36195938753818,10,2,8,4,34
45.36195938753818,10,2,8,4,35
45.40206113737933,10,2,8,4,36
45.36195938753818,10,2,8,4,37
45.36195938753818,10,2,8,4,38
45.36195938753818,10,2,8,4,39
45.36195938753818,10,2,8,4,40
45.36116005926114,10,2,8,4,41
45.35903129601289,10,2,8,4,42
45.35903129601289,10,2,8,4,43
45.36116005926114,10,2,8,4,44
45.40206113737933,10,2,8,4,45
45.364887843041885,10,2,8,4,46
45.36195938753818,10,2,8,4,47
45.36195938753818,10,2,8,4,48
45.36195938753818,10,2,8,4,49
45.36195938753818,10,2,8,4,50
45.36195938753818,10,2,8,4,51
45.36195938753818,10,2,8,4,52
45.36195938753818,10,2,8,4,53
45.36116005926114,10,2,8,4,54
45.364887843041885,10,2,8,4,55
45.36116005926114,10,2,8,4,56
45.40206113737933,10,2,8,4,57
45.36195938753818,10,2,8,4,58
45.36195938753818,10,2,8,4,59
45.36861613961849,10,2,8,4,60
45.364887843041885,10,2,8,4,61
45.40206113737933,10,2,8,4,62
45.40206113737933,10,2,8,4,63
45.40206113737933,10,2,8,4,64
45.36195938753818,10,2,8,4,65
45.36195938753818,10,2,8,4,66
45.364887843041885,10,2,8,4,67
45.40206113737933,10,2,8,4,68
45.40206113737933,10,2,8,4,69
45.36195938753818,10,2,8,4,70
45.35903129601289,10,2,8,4,71
45.40206113737933,10,2,8,4,72
45.401261102464765,10,2,8,4,73
45.36195938753818,10,2,8,4,74
45.364887843041885,10,2,8,4,75
45.36195938753818,10,2,8,4,76
45.364887843041885,10,2,8,4,77
45.36116005926114,10,2,8,4,78
45.390213515430816,10,2,8,4,79
45.36195938753818,10,2,8,4,80
45.40206113737933,10,2,8,4,81
45.36195938753818,10,2,8,4,82
45.36195938753818,10,2,8,4,83
45.364887843041885,10,2,8,4,84
45.36116005926114,10,2,8,4,85
45.36195938753818,10,2,8,4,86
45.36195938753818,10,2,8,4,87
45.40206113737933,10,2,8,4,88
45.36195938753818,10,2,8,4,89
45.35823212251183,10,2,8,4,90
45.36195938753818,10,2,8,4,91
45.36195938753818,10,2,8,4,92
45.364887843041885,10,2,8,4,93
45.364887843041885,10,2,8,4,94
45.36116005926114,10,2,8,4,95
45.36195938753818,10,2,8,4,96
45.364887843041885,10,2,8,4,97
45.35903129601289,10,2,8,4,98
45.36195938753818,10,2,8,4,99
45.364887843041885,10,2,8,4,100
45.36116005926114,10,2,8,4,101
45.40206113737933,10,2,8,4,102
45.36195938753818,10,2,8,4,103
45.36195938753818,10,2,8,4,104
45.364887843041885,10,2,8,4,105
45.390213515430816,10,2,8,4,106
45.40206113737933,10,2,8,4,107
45.364887843041885,10,2,8,4,108
45.36408835994963,10,2,8,4,109
45.36195938753818,10,2,8,5,111
45.36195938753818,10,2,8,5,112
45.36195938753818,10,2,8,5,113
45.364887843041885,10,2,8,5,114
45.364887843041885,10,2,8,5,115
45.364887843041885,10,2,8,5,116
45.36195938753818,10,2,8,5,117
45.36195938753818,10,2,8,5,118
45.35010128909008,10,2,8,5,119
45.36195938753818,10,2,8,5,120
45.36568716524257,10,2,8,5,121
45.364887843041885,10,2,8,5,122
45.40499218175248,10,2,8,5,123
45.362758554949345,10,2,8,5,124
45.36408835994963,10,2,8,5,125
45.36195938753818,10,2,8,5,126
45.36568716524257,10,2,8,5,127
45.36195938753818,10,2,8,5,128
45.36195938753818,10,2,8,5,129
45.36195938753818,10,2,8,5,130
45.36195938753818,10,2,8,5,131
45.40206113737933,10,2,8,5,132
45.402861011285815,10,2,8,5,133
45.40206113737933,10,2,8,5,134
45.40206113737933,10,2,8,5,135
45.364887843041885,10,2,8,5,136
45.40206113737933,10,2,8,5,137
45.399130457306384,10,2,8,5,138
45.36195938753818,10,2,8,5,139
45.364887843041885,10,2,8,5,140
45.364887843041885,10,2,8,5,141
45.40206113737933,10,2,8,5,142
45.36195938753818,10,2,8,5,143
45.40499218175248,10,2,8,5,144
45.36195938753818,10,2,8,5,145
45.364887843041885,10,2,8,5,146
45.40206113737933,10,2,8,5,147
45.364887843041885,10,2,8,5,148
45.40206113737933,10,2,8,5,149
45.40206113737933,10,2,8,5,150
45.40206113737933,10,2,8,5,151
45.40419199188584,10,2,8,5,152
45.40206113737933,10,2,8,5,153
45.40419199188584,10,2,8,5,154
45.40206113737933,10,2,8,5,155
45.40206113737933,10,2,8,5,156
45.39993017632576,10,2,8,5,157
45.36195938753818,10,2,8,5,158
45.40206113737933,10,2,8,5,159
45.401261102464765,10,2,8,5,160
45.40206113737933,10,2,8,5,161
45.40206113737933,10,2,8,5,162
45.36408835994963,10,2,8,5,163
45.40206113737933,10,2,8,5,164
45.40206113737933,10,2,8,5,165
45.40206113737933,10,2,8,5,166
45.40206113737933,10,2,8,5,167
45.40499218175248,10,2,8,5,168
45.364887843041885,10,2,8,5,169
45.40206113737933,10,2,8,5,170
45.40206113737933,10,2,8,5,171
45.40206113737933,10,2,8,5,172
45.40499218175248,10,2,8,5,173
45.40206113737933,10,2,8,5,174
45.40206113737933,10,2,8,5,175
45.40499218175248,10,2,8,5,176
45.40206113737933,10,2,8,5,177
45.36195938753818,10,2,8,5,178
45.40206113737933,10,2,8,5,179
45.36195938753818,10,2,8,5,180
45.40206113737933,10,2,8,5,181
45.40206113737933,10,2,8,5,182
45.364887843041885,10,2,8,5,183
45.36195938753818,10,2,8,5,184
45.40206113737933,10,2,8,5,185
45.40206113737933,10,2,8,5,186
45.40206113737933,10,2,8,5,187
45.40206113737933,10,2,8,5,188
45.40206113737933,10,2,8,5,189
45.40206113737933,10,2,8,5,190
45.36116005926114,10,2,8,5,191
45.36195938753818,10,2,8,5,192
45.364887843041885,10,2,8,5,193
45.40499218175248,10,2,8,5,194
45.364887843041885,10,2,8,5,195
45.364887843041885,10,2,8,5,196
45.36195938753818,10,2,8,5,197
45.40499218175248,10,2,8,5,198
45.36195938753818,10,2,8,5,199
45.40206113737933,10,2,8,5,200
45.40206113737933,10,2,8,5,201
45.36116005926114,10,2,8,5,202
45.40206113737933,10,2,8,5,203
45.36116005926114,10,2,8,5,204
45.40206113737933,10,2,8,5,205
45.40206113737933,10,2,8,5,206
45.40206113737933,10,2,8,5,207
45.40206113737933,10,2,8,5,208
45.40206113737933,10,2,8,5,209
91.01650615112503,10,2,8,6,211
91.01650615112503,10,2,8,6,212
91.0223819508472,10,2,8,6,213
90.98227432760562,10,2,8,6,214
91.01650615112503,10,2,8,6,215
91.01650615112503,10,2,8,6,216
91.01650615112503,10,2,8,6,217
91.0223819508472,10,2,8,6,218
90.9764011169649,10,2,8,6,219
91.01490233885531,10,2,8,6,220
91.01650615112503,10,2,8,6,221
91.01650615112503,10,2,8,6,222
91.01650615112503,10,2,8,6,223
91.01650615112503,10,2,8,6,224
91.01650615112503,10,2,8,6,225
91.01650615112503,10,2,8,6,226
91.01650615112503,10,2,8,6,227
91.01650615112503,10,2,8,6,228
91.01650615112503,10,2,8,6,229
91.01063108170739,10,2,8,6,230
91.02398575092501,10,2,8,6,231
91.0181096406254,10,2,8,6,232
90.98227432760562,10,2,8,6,233
91.0207778279485,10,2,8,6,234
91.0223819508472,10,2,8,6,235
91.0181096406254,10,2,8,6,236
90.98227432760562,10,2,8,6,237
91.0223819508472,10,2,8,6,238
91.01650615112503,10,2,8,6,239
91.02398575092501,10,2,8,6,240
91.01650615112503,10,2,8,6,241
91.0181096406254,10,2,8,6,242
91.01650615112503,10,2,8,6,243
91.01650615112503,10,2,8,6,244
91.01650615112503,10,2,8,6,245
90.9764011169649,10,2,8,6,246
91.01650615112503,10,2,8,6,247
91.01650615112503,10,2,8,6,248
91.01650615112503,10,2,8,6,249
91.01650615112503,10,2,8,6,250
90.98387742099341,10,2,8,6,251
91.0181096406254,10,2,8,6,252
91.02398575092501,10,2,8,6,253
91.0223819508472,10,2,8,6,254
90.9764011169649,10,2,8,6,255
90.9764011169649,10,2,8,6,0
91.01650615112503,10,2,8,6,1
91.0223819508472,10,2,8,6,2
90.98227432760562,10,2,8,6,3
91.01650615112503,10,2,8,6,4
91.01650615112503,10,2,8,6,5
91.01650615112503,10,2,8,6,6
91.02398575092501,10,2,8,6,7
91.0181096406254,10,2,8,6,8
91.01650615112503,10,2,8,6,9
90.9780038999121,10,2,8,6,10
91.01650615112503,10,2,8,6,11
91.0181096406254,10,2,8,6,12
91.01650615112503,10,2,8,6,13
90.98227432760562,10,2,8,6,14
90.9764011169649,10,2,8,6,15
91.01650615112503,10,2,8,6,16
91.01650615112503,10,2,8,6,17
91.0223819508472,10,2,8,6,18
90.98827204970982,10,2,8,6,19
91.01650615112503,10,2,8,6,20
90.9764011169649,10,2,8,6,21
91.01650615112503,10,2,8,6,22
91.0223819508472,10,2,8,6,23
91.03424841954914,10,2,8,6,24
91.01650615112503,10,2,8,6,25
91.01650615112503,10,2,8,6,26
91.0181096406254,10,2,8,6,27
91.01650615112503,10,2,8,6,28
91.0181096406254,10,2,8,6,29
91.01650615112503,10,2,8,6,30
91.01650615112503,10,2,8,6,31
91.01650615112503,10,2,8,6,32
91.01650615112503,10,2,8,6,33
91.01650615112503,10,2,8,6,34
91.01650615112503,10,2,8,6,35
90.97052863630691,10,2,8,6,36
91.01650615112503,10,2,8,6,37
91.01650615112503,10,2,8,6,38
91.02398575092501,10,2,8,6,39
91.01650615112503,10,2,8,6,40
91.01650615112503,10,2,8,6,41
90.98227432760562,10,2,8,6,42
90.98227432760562,10,2,8,6,43
91.01650615112503,10,2,8,6,44
91.01650615112503,10,2,8,6,45
90.9780038999121,10,2,8,6,46
90.9780038999121,10,2,8,6,47
91.0223819508472,10,2,8,6,48
91.01650615112503,10,2,8,6,49
91.01650615112503,10,2,8,6,50
91.0181096406254,10,2,8,6,51
91.01650615112503,10,2,8,6,52
91.02837185380663,10,2,8,6,53
91.0223819508472,10,2,8,7,55
91.0181096406254,10,2,8,7,56
91.02398575092501,10,2,8,7,57
91.01650615112503,10,2,8,7,58
91.01650615112503,10,2,8,7,59
91.01650615112503,10,2,8,7,60
91.01650615112503,10,2,8,7,61
91.0223819508472,10,2,8,7,62
91.01650615112503,10,2,8,7,63
91.01650615112503,10,2,8,7,64
91.01650615112503,10,2,8,7,65
90.9764011169649,10,2,8,7,66
91.01650615112503,10,2,8,7,67
91.01650615112503,10,2,8,7,68
91.01063108170739,10,2,8,7,69
91.0181096406254,10,2,8,7,70
90.9764011169649,10,2,8,7,71
91.01650615112503,10,2,8,7,72
91.01650615112503,10,2,8,7,73
91.01650615112503,10,2,8,7,74
91.01650615112503,10,2,8,7,75
91.0223819508472,10,2,8,7,76
91.01650615112503,10,2,8,7,77
91.01650615112503,10,2,8,7,78
90.98387742099341,10,2,8,7,79
91.01650615112503,10,2,8,7,80
91.01650615112503,10,2,8,7,81
91.01063108170739,10,2,8,7,82
91.01650615112503,10,2,8,7,83
91.01650615112503,10,2,8,7,84
91.01650615112503,10,2,8,7,85
91.02398575092501,10,2,8,7,86
91.01650615112503,10,2,8,7,87
91.01650615112503,10,2,8,7,88
91.01650615112503,10,2,8,7,89
90.9780038999121,10,2,8,7,90
91.01063108170739,10,2,8,7,91
91.01650615112503,10,2,8,7,92
91.01650615112503,10,2,8,7,93
91.01650615112503,10,2,8,7,94
91.01650615112503,10,2,8,7,95
91.01650615112503,10,2,8,7,96
91.0181096406254,10,2,8,7,97
91.0181096406254,10,2,8,7,98
91.01650615112503,10,2,8,7,99
91.01063108170739,10,2,8,7,100
91.01650615112503,10,2,8,7,101
91.01650615112503,10,2,8,7,102
91.0181096406254,10,2,8,7,103
91.01650615112503,10,2,8,7,104
91.01650615112503,10,2,8,7,105
91.0223819508472,10,2,8,7,106
91.0181096406254,10,2,8,7,107
91.0181096406254,10,2,8,7,108
91.0181096406254,10,2,8,7,109
91.01650615112503,10,2,8,7,110
91.01650615112503,10,2,8,7,111
91.01650615112503,10,2,8,7,112
91.01650615112503,10,2,8,7,113
91.01650615112503,10,2,8,7,114
91.01650615112503,10,2,8,7,115
91.02398575092501,10,2,8,7,116
91.02398575092501,10,2,8,7,117
91.01650615112503,10,2,8,7,118
91.0223819508472,10,2,8,7,119
91.02398575092501,10,2,8,7,120
91.01650615112503,10,2,8,7,121
91.0223819508472,10,2,8,7,122
91.01650615112503,10,2,8,7,123
91.01650615112503,10,2,8,7,124
91.0223819508472,10,2,8,7,125
91.0223819508472,10,2,8,7,126
91.01223426070904,10,2,8,7,127
91.01650615112503,10,2,8,7,128
91.01650615112503,10,2,8,7,129
91.01650615112503,10,2,8,7,130
91.01650615112503,10,2,8,7,131
91.01650615112503,10,2,8,7,132
91.01650615112503,10,2,8,7,133
90.9764011169649,10,2,8,7,134
91.0223819508472,10,2,8,7,135
91.0181096406254,10,2,8,7,136
91.01650615112503,10,2,8,7,137
91.01650615112503,10,2,8,7,138
91.02398575092501,10,2,8,7,139
91.0181096406254,10,2,8,7,140
91.02398575092501,10,2,8,7,141
91.01063108170739,10,2,8,7,142
91.01650615112503,10,2,8,7,143
91.0181096406254,10,2,8,7,144
91.01650615112503,10,2,8,7,145
91.01650615112503,10,2,8,7,146
91.02398575092501,10,2,8,7,147
91.01650615112503,10,2,8,7,148
91.01650615112503,10,2,8,7,149
91.0181096406254,10,2,8,7,150
91.01650615112503,10,2,8,7,151
91.01650615112503,10,2,8,7,152
91.01650615112503,10,2,8,7,153
93.16556012631779,10,2,8,8,155
93.15954597726372,10,2,8,8,156
93.15954597726372,10,2,8,8,157
93.15954597726372,10,2,8,8,158
93.15954597726372,10,2,8,8,159
93.14932990984252,10,2,8,8,160
93.15534361128113,10,2,8,8,161
93.16556012631779,10,2,8,8,162
93.1611872219143,10,2,8,8,163
93.15954597726372,10,2,8,8,164
93.157904402244,10,2,8,8,165
93.16556012631779,10,2,8,8,166
93.15954597726372,10,2,8,8,167
93.14768887408528,10,2,8,8,168
93.14932990984252,10,2,8,8,169
93.1611872219143,10,2,8,8,170
93.16556012631779,10,2,8,8,171
93.14932990984252,10,2,8,8,172
93.15954597726372,10,2,8,8,173
93.15534361128113,10,2,8,8,174
93.14768887408528,10,2,8,8,175
93.15954597726372,10,2,8,8,176
93.15954597726372,10,2,8,8,177
93.14768887408528,10,2,8,8,178
93.1611872219143,10,2,8,8,179
93.15954597726372,10,2,8,8,180
93.15353257570968,10,2,8,8,181
93.15954597726372,10,2,8,8,182
93.15954597726372,10,2,8,8,183
93.15954597726372,10,2,8,8,184
93.15954597726372,10,2,8,8,185
93.15954597726372,10,2,8,8,186
93.14768887408528,10,2,8,8,187
93.15370225767417,10,2,8,8,188
93.14932990984252,10,2,8,8,189
93.14167623790124,10,2,8,8,190
93.14932990984252,10,2,8,8,191
93.15370225767417,10,2,8,8,192
93.15954597726372,10,2,8,8,193
93.14768887408528,10,2,8,8,194
93.15954597726372,10,2,8,8,195
93.14768887408528,10,2,8,8,196
93.14932990984252,10,2,8,8,197
93.14932990984252,10,2,8,8,198
93.14768887408528,10,2,8,8,199
93.14768887408528,10,2,8,8,200
93.14768887408528,10,2,8,8,201
93.16720168885851,10,2,8,8,202
93.14932990984252,10,2,8,8,203
93.15954597726372,10,2,8,8,204
93.1611872219143,10,2,8,8,205
93.15370225767417,10,2,8,8,206
93.16556012631779,10,2,8,8,207
93.16556012631779,10,2,8,8,208
93.14768887408528,10,2,8,8,209
93.14932990984252,10,2,8,8,210
93.15954597726372,10,2,8,8,211
93.14768887408528,10,2,8,8,212
93.14932990984252,10,2,8,8,213
93.14932990984252,10,2,8,8,214
93.14768887408528,10,2,8,8,215
93.15534361128113,10,2,8,8,216
93.15534361128113,10,2,8,8,217
93.14768887408528,10,2,8,8,218
93.14768887408528,10,2,8,8,219
93.157904402244,10,2,8,8,220
93.15954597726372,10,2,8,8,221
93.15954597726372,10,2,8,8,222
93.14768887408528,10,2,8,8,223
93.14768887408528,10,2,8,8,224
93.14932990984252,10,2,8,8,225
93.15954597726372,10,2,8,8,226
93.157904402244,10,2,8,8,227
93.1611872219143,10,2,8,8,228
93.14768887408528,10,2,8,8,229
93.15370225767417,10,2,8,8,230
93.15534361128113,10,2,8,8,231
93.14932990984252,10,2,8,8,232
93.15954597726372,10,2,8,8,233
93.14768887408528,10,2,8,8,234
93.15534361128113,10,2,8,8,235
93.1639182333551,10,2,8,8,236
93.15954597726372,10,2,8,8,237
93.14768887408528,10,2,8,8,238
93.14768887408528,10,2,8,8,239
93.1611872219143,10,2,8,8,240
93.14768887408528,10,2,8,8,241
93.15954597726372,10,2,8,8,242
93.15954597726372,10,2,8,8,243
93.14932990984252,10,2,8,8,244
93.14768887408528,10,2,8,8,245
93.14768887408528,10,2,8,8,246
93.15534361128113,10,2,8,8,247
93.14768887408528,10,2,8,8,248
93.15534361128113,10,2,8,8,249
93.14768887408528,10,2,8,8,250
93.15370225767417,10,2,8,8,251
93.15534361128113,10,2,8,8,252
93.14768887408528,10,2,8,8,253
93.15954597726372,10,2,8,8,254
93.14768887408528,10,2,8,8,255
93.14768887408528,10,2,8,8,0
93.15370225767417,10,2,8,8,1
93.16556012631779,10,2,8,8,2
93.14768887408528,10,2,8,8,3
93.14768887408528,10,2,8,8,4
93.15954597726372,10,2,8,8,5
93.15370225767417,10,2,8,8,6
93.15954597726372,10,2,8,8,7
93.15954597726372,10,2,8,8,8
93.15954597726372,10,2,8,8,9
93.14768887408528,10,2,8,8,10
93.14932990984252,10,2,8,8,11
93.16556012631779,10,2,8,8,12
93.14768887408528,10,2,8,8,13
93.15534361128113,10,2,8,8,14
93.15954597726372,10,2,8,8,15
93.15370225767417,10,2,8,8,16
93.14768887408528,10,2,8,8,17
93.15370225767417,10,2,8,8,18
93.14932990984252,10,2,8,8,19
93.15954597726372,10,2,8,8,20
93.15534361128113,10,2,8,8,21
93.15370225767417,10,2,8,8,22
93.15954597726372,10,2,8,8,23
93.15954597726372,10,2,8,8,24
93.15370225767417,10,2,8,8,25
93.14768887408528,10,2,8,8,26
93.16556012631779,10,2,8,8,27
93.14768887408528,10,2,8,8,28
93.15370225767417,10,2,8,8,29
93.14932990984252,10,2,8,8,30
93.14932990984252,10,2,8,8,31
93.14768887408528,10,2,8,8,32
93.14932990984252,10,2,8,8,33
93.15534361128113,10,2,8,8,34
93.16556012631779,10,2,8,8,35
93.1433169558893,10,2,8,8,36
93.14768887408528,10,2,8,8,37
93.15954597726372,10,2,8,8,38
93.14768887408528,10,2,8,8,39
93.14932990984252,10,2,8,8,40
93.14768887408528,10,2,8,8,41
93.15534361128113,10,2,8,8,42
93.15370225767417,10,2,8,8,43
93.14932990984252,10,2,8,8,44
93.14768887408528,10,2,8,8,45
93.15370225767417,10,2,8,8,46
93.15534361128113,10,2,8,8,47
93.1433169558893,10,2,8,8,48
93.15954597726372,10,2,8,8,49
93.1611872219143,10,2,8,8,50
93.14768887408528,10,2,8,8,51
93.15534361128113,10,2,8,8,52
93.15954597726372,10,2,8,8,53
93.14932990984252,10,2,8,8,54
93.15954597726372,10,2,8,8,55
93.14768887408528,10,2,8,8,56
93.16556012631779,10,2,8,8,57
93.14768887408528,10,2,8,8,58
93.14167623790124,10,2,8,8,59
93.14768887408528,10,2,8,8,60
93.14768887408528,10,2,8,8,61
93.15954597726372,10,2,8,8,62
93.14768887408528,10,2,8,8,63
93.1611872219143,10,2,8,8,64
93.14768887408528,10,2,8,8,65
93.15954597726372,10,2,8,8,66
93.14768887408528,10,2,8,8,67
93.15370225767417,10,2,8,8,68
93.14932990984252,10,2,8,8,69
93.15954597726372,10,2,8,8,70
93.14768887408528,10,2,8,8,71
93.14768887408528,10,2,8,8,72
93.14768887408528,10,2,8,8,73
93.14768887408528,10,2,8,8,74
93.1611872219143,10,2,8,8,75
93.15954597726372,10,2,8,8,76
93.16556012631779,10,2,8,8,77
93.14167623790124,10,2,8,8,78
93.14768887408528,10,2,8,8,79
93.14932990984252,10,2,8,8,80
93.14932990984252,10,2,8,8,81
93.1611872219143,10,2,8,8,82
93.15954597726372,10,2,8,8,83
93.14932990984252,10,2,8,8,84
93.16556012631779,10,2,8,8,85
93.14768887408528,10,2,8,8,86
93.1611872219143,10,2,8,8,87
93.15370225767417,10,2,8,8,88
93.15954597726372,10,2,8,8,89
93.15954597726372,10,2,8,8,90
93.15954597726372,10,2,8,8,91
93.16556012631779,10,2,8,8,92
93.16556012631779,10,2,8,8,93
93.14768887408528,10,2,8,8,94
93.14167623790124,10,2,8,8,95
93.14768887408528,10,2,8,8,96
93.15370225767417,10,2,8,8,97
1.5021584377145905,10,3,4,1,99
1.465796777265062,10,3,4,1,100
1.5389183346874158,10,3,4,1,101
1.4859860747301288,10,3,4,1,102
1.5022808079482246,10,3,4,1,103
1.483187135384966,10,3,4,1,104
1.5073242724774214,10,3,4,1,105
1.4657029825240662,10,3,4,1,106
1.5022808079482246,10,3,4,1,107
1.5389183346874158,10,3,4,1,108
1.5390168146989438,10,3,4,1,109
1.5428221019099306,10,3,4,1,110
1.5220745038419012,10,3,4,1,111
1.5021846786337996,10,3,4,1,112
1.5021846786337996,10,3,4,1,113
1.5220745038419012,10,3,4,1,114
1.5220745038419012,10,3,4,1,115
1.5023070486702954,10,3,4,1,116
1.5021846786337996,10,3,4,1,117
1.5220745038419012,10,3,4,1,118
1.5203798573667104,10,3,4,1,119
1.5390168146989438,10,3,4,1,120
1.5073242724774214,10,3,4,1,121
1.5220479154771993,10,3,4,1,122
1.4861762606176225,10,3,4,1,123
1.465796777265062,10,3,4,1,124
1.5221719059660468,10,3,4,1,125
1.5022808079482246,10,3,4,1,126
1.5022545619910752,10,3,4,1,127
1.520450587184607,10,3,4,1,128
1.4861762606176225,10,3,4,1,129
1.4657029825240662,10,3,4,1,130
1.5390168146989438,10,3,4,1,131
1.5389183346874158,10,3,4,1,132
1.5022808079482246,10,3,4,1,133
1.5022808079482246,10,3,4,1,134
1.5221719059660468,10,3,4,1,135
1.5073505979254882,10,3,4,1,136
1.5388914520861854,10,3,4,1,137
1.5220745038419012,10,3,4,1,138
1.5022808079482246,10,3,4,1,139
1.5220745038419012,10,3,4,1,140
1.5022808079482246,10,3,4,1,141
1.5221719059660468,10,3,4,1,142
1.4860552022008002,10,3,4,1,143
1.5220745038419012,10,3,4,1,144
1.5221719059660468,10,3,4,1,145
1.5390168146989438,10,3,4,1,146
1.4860811618156597,10,3,4,1,147
1.5021846786337996,10,3,4,1,148
1.5021846786337996,10,3,4,1,149
1.5389183346874158,10,3,4,1,150
1.5022808079482246,10,3,4,1,151
1.5021846786337996,10,3,4,1,152
1.5389183346874158,10,3,4,1,153
1.5021846786337996,10,3,4,1,154
1.4832820489894756,10,3,4,1,155
1.5021846786337996,10,3,4,1,156
1.5027303617550023,10,3,4,1,157
1.4861762606176225,10,3,4,1,158
1.5389183346874158,10,3,4,1,159
1.5021846786337996,10,3,4,1,160
1.5204771510453323,10,3,4,1,161
1.5022808079482246,10,3,4,1,162
1.5389452119264007,10,3,4,1,163
1.5221453124966993,10,3,4,1,164
1.5022545619910752,10,3,4,1,165
1.5204771510453323,10,3,4,1,166
1.5021846786337996,10,3,4,1,167
1.5021846786337996,10,3,4,1,168
1.4657711687109207,10,3,4,1,169
1.4861762606176225,10,3,4,1,170
1.5389452119264007,10,3,4,1,171
1.5203798573667104,10,3,4,1,172
1.5204771510453323,10,3,4,1,173
1.5577878543544186,10,3,4,1,174
1.5073505979254882,10,3,4,1,175
1.5021584377145905,10,3,4,1,176
1.4860811618156597,10,3,4,1,177
1.5023070486702954,10,3,4,1,178
1.5021584377145905,10,3,4,1,179
1.5021584377145905,10,3,4,1,180
1.5027303617550023,10,3,4,1,181
1.483187135384966,10,3,4,1,182
1.5022545619910752,10,3,4,1,183
1.483213039277459,10,3,4,1,184
1.5073242724774214,10,3,4,1,185
1.5389183346874158,10,3,4,1,186
1.5021846786337996,10,3,4,1,187
1.5022808079482246,10,3,4,1,188
1.5022808079482246,10,3,4,1,189
1.5022109143187592,10,3,4,1,190
1.5021846786337996,10,3,4,1,191
1.5021584377145905,10,3,4,1,192
1.5022808079482246,10,3,4,1,193
1.5389183346874158,10,3,4,1,194
1.5203798573667104,10,3,4,1,195
1.5220745038419012,10,3,4,1,196
1.5220745038419012,10,3,4,1,197
1.465822380711263,10,3,4,2,199
1.5220479154771993,10,3,4,2,200
1.5390168146989438,10,3,4,2,201
1.5390168146989438,10,3,4,2,202
1.5389183346874158,10,3,4,2,203
1.483161226324419,10,3,4,2,204
1.5021846786337996,10,3,4,2,205
1.5022545619910752,10,3,4,2,206
1.5388914520861854,10,3,4,2,207
1.5220745038419012,10,3,4,2,208
1.4861502960188298,10,3,4,2,209
1.5390168146989438,10,3,4,2,210
1.5221719059660468,10,3,4,2,211
1.5583393813160622,10,3,4,2,212
1.5203798573667104,10,3,4,2,213
1.4504723852049153,10,3,4,2,214
1.5221719059660468,10,3,4,2,215
1.5221719059660468,10,3,4,2,216
1.5204771510453323,10,3,4,2,217
1.5021846786337996,10,3,4,2,218
1.5221719059660468,10,3,4,2,219
1.5428221019099306,10,3,4,2,220
1.5221719059660468,10,3,4,2,221
1.5022808079482246,10,3,4,2,222
1.5022808079482246,10,3,4,2,223
1.5221453124966993,10,3,4,2,224
1.5220745038419012,10,3,4,2,225
1.4657029825240662,10,3,4,2,226
1.4832820489894756,10,3,4,2,227
1.5204771510453323,10,3,4,2,228
1.5021846786337996,10,3,4,2,229
1.5021846786337996,10,3,4,2,230
1.5204771510453323,10,3,4,2,231
1.5389183346874158,10,3,4,2,232
1.557887541883248,10,3,4,2,233
1.5022808079482246,10,3,4,2,234
1.5073242724774214,10,3,4,2,235
1.5021846786337996,10,3,4,2,236
1.4860811618156597,10,3,4,2,237
1.5022808079482246,10,3,4,2,238
1.5021846786337996,10,3,4,2,239
1.4861762606176225,10,3,4,2,240
1.5021846786337996,10,3,4,2,241
1.5021846786337996,10,3,4,2,242
1.5021846786337996,10,3,4,2,243
1.465210341243485,10,3,4,2,244
1.4860811618156597,10,3,4,2,245
1.4832561349547013,10,3,4,2,246
1.483187135384966,10,3,4,2,247
1.4295840146207912,10,3,4,2,248
1.5022808079482246,10,3,4,2,249
1.5021846786337996,10,3,4,2,250
1.5022808079482246,10,3,4,2,251
1.5389183346874158,10,3,4,2,252
1.4657029825240662,10,3,4,2,253
1.5021846786337996,10,3,4,2,254
1.5022808079482246,10,3,4,2,255
1.483161226324419,10,3,4,2,0
1.4294925370950775,10,3,4,2,1
1.465116584027892,10,3,4,2,2
1.5022545619910752,10,3,4,2,3
1.5221719059660468,10,3,4,2,4
1.5021846786337996,10,3,4,2,5
1.5389183346874158,10,3,4,2,6
1.5022545619910752,10,3,4,2,7
1.4832820489894756,10,3,4,2,8
1.465796777265062,10,3,4,2,9
1.5390168146989438,10,3,4,2,10
1.5204771510453323,10,3,4,2,11
1.5203798573667104,10,3,4,2,12
1.5021846786337996,10,3,4,2,13
1.4860811618156597,10,3,4,2,14
1.483187135384966,10,3,4,2,15
1.4860811618156597,10,3,4,2,16
1.4656773788855149,10,3,4,2,17
1.5021846786337996,10,3,4,2,18
1.5022545619910752,10,3,4,2,19
1.5021846786337996,10,3,4,2,20
1.5204771510453323,10,3,4,2,21
1.5021846786337996,10,3,4,2,22
1.465090990632845,10,3,4,2,23
1.5022545619910752,10,3,4,2,24
1.5220745038419012,10,3,4,2,25
1.4657029825240662,10,3,4,2,26
1.5389183346874158,10,3,4,2,27
1.4861762606176225,10,3,4,2,28
1.5021584377145905,10,3,4,2,29
1.5021846786337996,10,3,4,2,30
1.5022808079482246,10,3,4,2,31
1.5021846786337996,10,3,4,2,32
1.5022808079482246,10,3,4,2,33
1.465822380711263,10,3,4,2,34
1.4860811618156597,10,3,4,2,35
1.5203798573667104,10,3,4,2,36
1.5388914520861854,10,3,4,2,37
1.465796777265062,10,3,4,2,38
1.46514217231785,10,3,4,2,39
1.465796777265062,10,3,4,2,40
1.4657029825240662,10,3,4,2,41
3.8151097114612194,10,3,4,4,43
3.828757796118356,10,3,4,4,44
3.8288246799579544,10,3,4,4,45
3.8151097114612194,10,3,4,4,46
3.854325108641317,10,3,4,4,47
3.8151097114612194,10,3,4,4,48
3.8288246799579544,10,3,4,4,49
3.8288246799579544,10,3,4,4,50
3.8151097114612194,10,3,4,4,51
3.8151097114612194,10,3,4,4,52
3.815353851803106,10,3,4,4,53
3.8290696979619137,10,3,4,4,54
3.815353851803106,10,3,4,4,55
3.8151097114612194,10,3,4,4,56
3.829002801281424,10,3,4,4,57
3.8151097114612194,10,3,4,4,58
3.8151097114612194,10,3,4,4,59
3.815353851803106,10,3,4,4,60
3.815353851803106,10,3,4,4,61
3.8151097114612194,10,3,4,4,62
3.854325108641317,10,3,4,4,63
3.8151097114612194,10,3,4,4,64
3.8151097114612194,10,3,4,4,65
3.8150430672016045,10,3,4,4,66
3.8151097114612194,10,3,4,4,67
3.8151763424273706,10,3,4,4,68
3.829002801281424,10,3,4,4,69
3.815353851803106,10,3,4,4,70
3.8151097114612194,10,3,4,4,71
3.854325108641317,10,3,4,4,72
3.815353851803106,10,3,4,4,73
3.8151097114612194,10,3,4,4,74
3.815353851803106,10,3,4,4,75
3.8151097114612194,10,3,4,4,76
3.8542577793473756,10,3,4,4,77
3.8151097114612194,10,3,4,4,78
3.854325108641317,10,3,4,4,79
3.8290696979619137,10,3,4,4,80
3.815353851803106,10,3,4,4,81
3.815353851803106,10,3,4,4,82
3.8288246799579544,10,3,4,4,83
3.8151097114612194,10,3,4,4,84
3.8288246799579544,10,3,4,4,85
3.8290696979619137,10,3,4,4,86
3.815353851803106,10,3,4,4,87
3.815353851803106,10,3,4,4,88
3.841148653737089,10,3,4,4,89
3.815353851803106,10,3,4,4,90
3.8151097114612194,10,3,4,4,91
3.841394460389186,10,3,4,4,92
3.8288246799579544,10,3,4,4,93
3.8151097114612194,10,3,4,4,94
3.815353851803106,10,3,4,4,95
3.8151097114612194,10,3,4,4,96
3.8151097114612194,10,3,4,4,97
3.815353851803106,10,3,4,4,98
3.802040632791164,10,3,4,4,99
3.8151097114612194,10,3,4,4,100
3.815353851803106,10,3,4,4,101
3.8151097114612194,10,3,4,4,102
3.8151097114612194,10,3,4,4,103
3.8152871947485965,10,3,4,4,104
3.8290696979619137,10,3,4,4,105
3.8150430672016045,10,3,4,4,106
3.802040632791164,10,3,4,4,107
3.815353851803106,10,3,4,4,108
3.8151097114612194,10,3,4,4,109
3.8151097114612194,10,3,4,4,110
3.815353851803106,10,3,4,4,111
3.8151097114612194,10,3,4,4,112
3.815353851803106,10,3,4,4,113
3.8290696979619137,10,3,4,4,114
3.8152871947485965,10,3,4,4,115
3.815353851803106,10,3,4,4,116
3.8151097114612194,10,3,4,4,117
3.8288246799579544,10,3,4,4,118
3.8290696979619137,10,3,4,4,119
3.815353851803106,10,3,4,4,120
3.815353851803106,10,3,4,4,121
3.8152871947485965,10,3,4,4,122
3.8288246799579544,10,3,4,4,123
3.8151097114612194,10,3,4,4,124
3.8151097114612194,10,3,4,4,125
3.8150430672016045,10,3,4,4,126
3.8151097114612194,10,3,4,4,127
3.815353851803106,10,3,4,4,128
3.815353851803106,10,3,4,4,129
3.854571758494384,10,3,4,4,130
3.815353851803106,10,3,4,4,131
3.815353851803106,10,3,4,4,132
3.8288246799579544,10,3,4,4,133
3.8151097114612194,10,3,4,4,134
3.815353851803106,10,3,4,4,135
3.841148653737089,10,3,4,4,136
3.8151097114612194,10,3,4,4,137
3.8152871947485965,10,3,4,4,138
3.841148653737089,10,3,4,4,139
3.815353851803106,10,3,4,4,140
3.8288246799579544,10,3,4,4,141
1.5021846786337996,10,3,4,5,143
1.5022808079482246,10,3,4,5,144
1.5577878543544186,10,3,4,5,145
1.5405925890371668,10,3,4,5,146
1.5205744567129245,10,3,4,5,147
1.5221984941310005,10,3,4,5,148
1.483187135384966,10,3,4,5,149
1.4657711687109207,10,3,4,5,150
1.5204771510453323,10,3,4,5,151
1.5022808079482246,10,3,4,5,152
1.4860811618156597,10,3,4,5,153
1.538989926936578,10,3,4,5,154
1.4657285810554852,10,3,4,5,155
1.4832820489894756,10,3,4,5,156
1.540691176189265,10,3,4,5,157
1.5204771510453323,10,3,4,5,158
1.5023070486702954,10,3,4,5,159
1.5204771510453323,10,3,4,5,160
1.540691176189265,10,3,4,5,161
1.5203798573667104,10,3,4,5,162
1.465210341243485,10,3,4,5,163
1.502852778579247,10,3,4,5,164
1.4657711687109207,10,3,4,5,165
1.5220745038419012,10,3,4,5,166
1.4861762606176223,10,3,4,5,167
1.5203798573667104,10,3,4,5,168
1.5203798573667104,10,3,4,5,169
1.5577878543544186,10,3,4,5,170
1.557887541883248,10,3,4,5,171
1.5203798573667104,10,3,4,5,172
1.4832820489894756,10,3,4,5,173
1.5022808079482246,10,3,4,5,174
1.5021846786337996,10,3,4,5,175
1.5203798573667104,10,3,4,5,176
1.5022808079482246,10,3,4,5,177
1.5021846786337996,10,3,4,5,178
1.5204064108308244,10,3,4,5,179
1.5204771510453323,10,3,4,5,180
1.5203798573667104,10,3,4,5,181
1.502852778579247,10,3,4,5,182
1.5022808079482246,10,3,4,5,183
1.540691176189265,10,3,4,5,184
1.483187135384966,10,3,4,5,185
1.5577878543544186,10,3,4,5,186
1.557887541883248,10,3,4,5,187
1.540691176189265,10,3,4,5,188
1.5405925890371668,10,3,4,5,189
1.4860811618156597,10,3,4,5,190
1.4657029825240662,10,3,4,5,191
1.5203798573667104,10,3,4,5,192
1.5221453124966993,10,3,4,5,193
1.5203798573667104,10,3,4,5,194
1.5204771510453323,10,3,4,5,195
1.557887541883248,10,3,4,5,196
1.5027566126650436,10,3,4,5,197
1.5022808079482246,10,3,4,5,198
1.4860811618156597,10,3,4,5,199
1.4657711687109207,10,3,4,5,200
1.465210341243485,10,3,4,5,201
1.5022808079482246,10,3,4,5,202
1.446318845609601,10,3,4,5,203
1.483161226324419,10,3,4,5,204
1.446318845609601,10,3,4,5,205
1.520450587184607,10,3,4,5,206
1.483187135384966,10,3,4,5,207
1.5022109143187592,10,3,4,5,208
1.4462262972402598,10,3,4,5,209
1.4277129358974068,10,3,4,5,210
1.446318845609601,10,3,4,5,211
1.4832820489894756,10,3,4,5,212
1.465116584027892,10,3,4,5,213
1.5022545619910752,10,3,4,5,214
1.446318845609601,10,3,4,5,215
1.5221453124966993,10,3,4,5,216
1.5221453124966993,10,3,4,5,217
1.483213039277459,10,3,4,5,218
1.5203798573667104,10,3,4,5,219
1.5204771510453323,10,3,4,5,220
1.5027566126650436,10,3,4,5,221
1.5204771510453323,10,3,4,5,222
1.465210341243485,10,3,4,5,223
1.465210341243485,10,3,4,5,224
1.4833079578553778,10,3,4,5,225
1.520450587184607,10,3,4,5,226
1.4277793633464244,10,3,4,5,227
1.465796777265062,10,3,4,5,228
1.4657029825240662,10,3,4,5,229
1.465796777265062,10,3,4,5,230
1.520353298604947,10,3,4,5,231
1.5204771510453323,10,3,4,5,232
1.483187135384966,10,3,4,5,233
1.5027566126650436,10,3,4,5,234
1.5027566126650436,10,3,4,5,235
1.5221719059660468,10,3,4,5,236
1.4861762606176223,10,3,4,5,237
1.446318845609601,10,3,4,5,238
1.5389183346874158,10,3,4,5,239
1.502852778579247,10,3,4,5,240
1.4833079578553778,10,3,4,5,241
1.5220479154771993,10,3,4,6,243
1.4861762606176225,10,3,4,6,244
1.4832820489894756,10,3,4,6,245
1.5389183346874158,10,3,4,6,246
1.4860811618156597,10,3,4,6,247
1.5022808079482246,10,3,4,6,248
1.4860811618156597,10,3,4,6,249
1.5220745038419012,10,3,4,6,250
1.5022808079482246,10,3,4,6,251
1.4860811618156597,10,3,4,6,252
1.5388914520861854,10,3,4,6,253
1.5074207306899101,10,3,4,6,254
1.5577878543544186,10,3,4,6,255
1.4722321562621703,10,3,4,6,0
1.4860811618156597,10,3,4,6,1
1.5220745038419012,10,3,4,6,2
1.5022808079482246,10,3,4,6,3
1.5021846786337996,10,3,4,6,4
1.5389183346874158,10,3,4,6,5
1.5221719059660468,10,3,4,6,6
1.5221453124966993,10,3,4,6,7
1.5022808079482246,10,3,4,6,8
1.4657285810554852,10,3,4,6,9
1.4861762606176225,10,3,4,6,10
1.4862022200374574,10,3,4,6,11
1.5021846786337996,10,3,4,6,12
1.5203798573667104,10,3,4,6,13
1.5022109143187592,10,3,4,6,14
1.5022545619910752,10,3,4,6,15
1.5022808079482246,10,3,4,6,16
1.4861762606176225,10,3,4,6,17
1.4860811618156597,10,3,4,6,18
1.5203798573667104,10,3,4,6,19
1.5021846786337996,10,3,4,6,20
1.4503795710550944,10,3,4,6,21
1.465796777265062,10,3,4,6,22
1.5022808079482246,10,3,4,6,23
1.5221719059660468,10,3,4,6,24
1.5221719059660468,10,3,4,6,25
1.5203798573667104,10,3,4,6,26
1.4722321562621703,10,3,4,6,27
1.4860811618156597,10,3,4,6,28
1.5027566126650436,10,3,4,6,29
1.5221719059660468,10,3,4,6,30
1.5221010869030493,10,3,4,6,31
1.4861762606176225,10,3,4,6,32
1.5220745038419012,10,3,4,6,33
1.4860811618156597,10,3,4,6,34
1.5073505979254882,10,3,4,6,35
1.5022808079482246,10,3,4,6,36
1.5021846786337996,10,3,4,6,37
1.5021846786337996,10,3,4,6,38
1.4860811618156597,10,3,4,6,39
1.5220745038419012,10,3,4,6,40
1.5221719059660468,10,3,4,6,41
1.5584391041387602,10,3,4,6,42
1.5389183346874158,10,3,4,6,43
1.5220745038419012,10,3,4,6,44
1.5221719059660468,10,3,4,6,45
1.5389183346874158,10,3,4,6,46
1.472137949728274,10,3,4,6,47
1.5021584377145905,10,3,4,6,48
1.5390168146989438,10,3,4,6,49
1.4861762606176225,10,3,4,6,50
1.5074207306899101,10,3,4,6,51
1.5021846786337996,10,3,4,6,52
1.5221719059660468,10,3,4,6,53
1.5073505979254882,10,3,4,6,54
1.5022808079482246,10,3,4,6,55
1.5220479154771993,10,3,4,6,56
1.4722321562621703,10,3,4,6,57
1.4861762606176225,10,3,4,6,58
1.5073943949345079,10,3,4,6,59
1.4722321562621703,10,3,4,6,60
1.5221719059660468,10,3,4,6,61
1.5074207306899101,10,3,4,6,62
1.5021846786337996,10,3,4,6,63
1.5021846786337996,10,3,4,6,64
1.5203798573667104,10,3,4,6,65
1.5220745038419012,10,3,4,6,66
1.5022808079482246,10,3,4,6,67
1.465796777265062,10,3,4,6,68
1.5428221019099306,10,3,4,6,69
1.4947296218042716,10,3,4,6,70
1.5074207306899101,10,3,4,6,71
1.5021846786337996,10,3,4,6,72
1.4860811618156597,10,3,4,6,73
1.5221719059660468,10,3,4,6,74
1.4860811618156597,10,3,4,6,75
1.4861502960188298,10,3,4,6,76
1.5220745038419012,10,3,4,6,77
1.5583393813160622,10,3,4,6,78
1.5203798573667104,10,3,4,6,79
1.4657029825240662,10,3,4,6,80
1.557887541883248,10,3,4,6,81
1.5021846786337996,10,3,4,6,82
1.5022808079482246,10,3,4,6,83
1.5022808079482246,10,3,4,6,84
1.5204771510453323,10,3,4,6,85
1.5022808079482246,10,3,4,7,87
1.483187135384966,10,3,4,7,88
1.5022808079482246,10,3,4,7,89
1.4503795710550944,10,3,4,7,90
1.465796777265062,10,3,4,7,91
1.5203798573667104,10,3,4,7,92
1.4860811618156597,10,3,4,7,93
1.4295840146207912,10,3,4,7,94
1.4860811618156597,10,3,4,7,95
1.4657029825240662,10,3,4,7,96
1.465796777265062,10,3,4,7,97
1.465796777265062,10,3,4,7,98
1.4503795710550944,10,3,4,7,99
1.5221719059660468,10,3,4,7,100
1.4722321562621703,10,3,4,7,101
1.5027566126650436,10,3,4,7,102
1.4657029825240662,10,3,4,7,103
1.5021846786337996,10,3,4,7,104
1.465796777265062,10,3,4,7,105
1.483187135384966,10,3,4,7,106
1.5388914520861854,10,3,4,7,107
1.5221984941310005,10,3,4,7,108
1.4861762606176225,10,3,4,7,109
1.4832820489894756,10,3,4,7,110
1.5073242724774214,10,3,4,7,111
1.4504723852049153,10,3,4,7,112
1.4861762606176225,10,3,4,7,113
1.5390168146989438,10,3,4,7,114
1.4860552022008002,10,3,4,7,115
1.4861762606176225,10,3,4,7,116
1.4657029825240662,10,3,4,7,117
1.5022808079482246,10,3,4,7,118
1.4861502960188298,10,3,4,7,119
1.5021846786337996,10,3,4,7,120
1.4722064352771969,10,3,4,7,121
1.4721636606465223,10,3,4,7,122
1.5022808079482246,10,3,4,7,123
1.5221719059660468,10,3,4,7,124
1.5021846786337996,10,3,4,7,125
1.4860811618156597,10,3,4,7,126
1.5221719059660468,10,3,4,7,127
1.465796777265062,10,3,4,7,128
1.5220479154771993,10,3,4,7,129
1.5022808079482246,10,3,4,7,130
1.4503795710550944,10,3,4,7,131
1.5221719059660468,10,3,4,7,132
1.5021846786337996,10,3,4,7,133
1.465796777265062,10,3,4,7,134
1.5022808079482246,10,3,4,7,135
1.5073505979254882,10,3,4,7,136
1.5390168146989438,10,3,4,7,137
1.5389183346874158,10,3,4,7,138
1.5022545619910752,10,3,4,7,139
1.5021846786337996,10,3,4,7,140
1.5221719059660468,10,3,4,7,141
1.4860811618156597,10,3,4,7,142
1.4722321562621703,10,3,4,7,143
1.5204771510453323,10,3,4,7,144
1.5023070486702954,10,3,4,7,145
1.5022545619910752,10,3,4,7,146
1.5021846786337996,10,3,4,7,147
1.5204771510453323,10,3,4,7,148
1.4861502960188298,10,3,4,7,149
1.5021846786337996,10,3,4,7,150
1.4861762606176225,10,3,4,7,151
1.5021846786337996,10,3,4,7,152
1.4860552022008002,10,3,4,7,153
1.4861762606176225,10,3,4,7,154
1.4657029825240662,10,3,4,7,155
1.5220479154771993,10,3,4,7,156
1.483187135384966,10,3,4,7,157
1.4860811618156597,10,3,4,7,158
1.5022808079482246,10,3,4,7,159
1.4861762606176225,10,3,4,7,160
1.5022808079482246,10,3,4,7,161
1.5021846786337996,10,3,4,7,162
1.4861762606176225,10,3,4,7,163
1.4294925370950775,10,3,4,7,164
1.5022808079482246,10,3,4,7,165
1.5204771510453323,10,3,4,7,166
1.5220745038419012,10,3,4,7,167
1.472137949728274,10,3,4,7,168
1.5204771510453323,10,3,4,7,169
1.5221010869030493,10,3,4,7,170
1.5021846786337996,10,3,4,7,171
1.5579147539023246,10,3,4,7,172
1.5203798573667104,10,3,4,7,173
1.5221719059660468,10,3,4,7,174
1.5021846786337996,10,3,4,7,175
1.5023070486702954,10,3,4,7,176
1.5390436970982155,10,3,4,7,177
1.5221719059660468,10,3,4,7,178
1.465796777265062,10,3,4,7,179
1.4860552022008002,10,3,4,7,180
1.4861502960188298,10,3,4,7,181
1.5220745038419012,10,3,4,7,182
1.5221984941310005,10,3,4,7,183
1.5220745038419012,10,3,4,7,184
1.4860552022008002,10,3,4,7,185
1.5022808079482246,10,3,4,8,187
1.4860811618156597,10,3,4,8,188
1.5390168146989438,10,3,4,8,189
1.4861762606176225,10,3,4,8,190
1.5221719059660468,10,3,4,8,191
1.5022808079482246,10,3,4,8,192
1.5429208317352616,10,3,4,8,193
1.5427951511157267,10,3,4,8,194
1.5022808079482246,10,3,4,8,195
1.5074207306899101,10,3,4,8,196
1.4860811618156597,10,3,4,8,197
1.5221719059660468,10,3,4,8,198
1.5022808079482246,10,3,4,8,199
1.5220745038419012,10,3,4,8,200
1.5427951511157267,10,3,4,8,201
1.5220745038419012,10,3,4,8,202
1.5389183346874158,10,3,4,8,203
1.5220745038419012,10,3,4,8,204
1.5389183346874158,10,3,4,8,205
1.5221719059660468,10,3,4,8,206
1.5022808079482246,10,3,4,8,207
1.4860811618156597,10,3,4,8,208
1.5389183346874158,10,3,4,8,209
1.5220745038419012,10,3,4,8,210
1.5584391041387602,10,3,4,8,211
1.4948252740471937,10,3,4,8,212
1.4860811618156597,10,3,4,8,213
1.4722321562621703,10,3,4,8,214
1.5428938757668296,10,3,4,8,215
1.5390168146989438,10,3,4,8,216
1.5022808079482246,10,3,4,8,217
1.4861762606176225,10,3,4,8,218
1.5583393813160622,10,3,4,8,219
1.5583393813160622,10,3,4,8,220
1.5073242724774214,10,3,4,8,221
1.5073242724774214,10,3,4,8,222
1.5220745038419012,10,3,4,8,223
1.5428221019099306,10,3,4,8,224
1.5074207306899101,10,3,4,8,225
1.5022808079482246,10,3,4,8,226
1.538989926936578,10,3,4,8,227
1.5220745038419012,10,3,4,8,228
1.5220745038419012,10,3,4,8,229
1.5073242724774214,10,3,4,8,230
1.5389183346874158,10,3,4,8,231
1.5428221019099306,10,3,4,8,232
1.5021846786337996,10,3,4,8,233
1.5390168146989438,10,3,4,8,234
1.5221719059660468,10,3,4,8,235
1.4657029825240662,10,3,4,8,236
1.4861762606176225,10,3,4,8,237
1.5577606421309067,10,3,4,8,238
1.5389183346874158,10,3,4,8,239
1.5221719059660468,10,3,4,8,240
1.5220479154771993,10,3,4,8,241
1.5583665977440084,10,3,4,8,242
1.5221719059660468,10,3,4,8,243
1.5221719059660468,10,3,4,8,244
1.5022808079482246,10,3,4,8,245
1.5022808079482246,10,3,4,8,246
1.5220745038419012,10,3,4,8,247
1.5221719059660468,10,3,4,8,248
1.4861762606176225,10,3,4,8,249
1.5220745038419012,10,3,4,8,250
1.4861762606176225,10,3,4,8,251
1.5073242724774214,10,3,4,8,252
1.538989926936578,10,3,4,8,253
1.5220745038419012,10,3,4,8,254
1.5221719059660468,10,3,4,8,255
1.5583393813160622,10,3,4,8,0
1.5584391041387602,10,3,4,8,1
1.5220479154771993,10,3,4,8,2
1.4862022200374574,10,3,4,8,3
1.5221719059660468,10,3,4,8,4
1.5220745038419012,10,3,4,8,5
1.5221453124966993,10,3,4,8,6
1.5220745038419012,10,3,4,8,7
1.5204771510453323,10,3,4,8,8
1.5390168146989438,10,3,4,8,9
1.5221719059660468,10,3,4,8,10
1.5021846786337996,10,3,4,8,11
1.5021846786337996,10,3,4,8,12
1.5074207306899101,10,3,4,8,13
1.4860811618156597,10,3,4,8,14
1.5021846786337996,10,3,4,8,15
1.5388914520861854,10,3,4,8,16
1.5584391041387602,10,3,4,8,17
1.5221453124966993,10,3,4,8,18
1.5221719059660468,10,3,4,8,19
1.5022808079482246,10,3,4,8,20
1.5583393813160622,10,3,4,8,21
1.4657029825240662,10,3,4,8,22
1.5220745038419012,10,3,4,8,23
1.5428221019099306,10,3,4,8,24
1.5073242724774214,10,3,4,8,25
1.5389183346874158,10,3,4,8,26
1.5389183346874158,10,3,4,8,27
1.5390168146989438,10,3,4,8,28
1.5220745038419012,10,3,4,8,29
1.5220479154771993,10,3,4,8,30
1.5204771510453323,10,3,4,8,31
1.5074207306899101,10,3,4,8,32
1.5221719059660468,10,3,4,8,33
1.5583393813160622,10,3,4,8,34
1.5220745038419012,10,3,4,8,35
1.5389183346874158,10,3,4,8,36
1.5220745038419012,10,3,4,8,37
1.5220479154771993,10,3,4,8,38
1.5220745038419012,10,3,4,8,39
1.5221010869030493,10,3,4,8,40
1.5022545619910752,10,3,4,8,41
1.5074207306899101,10,3,4,8,42
1.472137949728274,10,3,4,8,43
1.5073242724774214,10,3,4,8,44
1.4861762606176225,10,3,4,8,45
1.5389183346874158,10,3,4,8,46
1.5220745038419012,10,3,4,8,47
1.5073242724774214,10,3,4,8,48
1.5221719059660468,10,3,4,8,49
1.4862022200374574,10,3,4,8,50
1.5584391041387602,10,3,4,8,51
1.5022808079482246,10,3,4,8,52
1.5221719059660468,10,3,4,8,53
1.5221984941310005,10,3,4,8,54
1.5221719059660468,10,3,4,8,55
1.5388914520861854,10,3,4,8,56
1.4294925370950775,10,3,4,8,57
1.5022808079482246,10,3,4,8,58
1.520450587184607,10,3,4,8,59
1.5022808079482246,10,3,4,8,60
1.5021846786337996,10,3,4,8,61
1.5203798573667104,10,3,4,8,62
1.5021846786337996,10,3,4,8,63
1.465822380711263,10,3,4,8,64
1.4861762606176225,10,3,4,8,65
1.4861762606176225,10,3,4,8,66
1.5390168146989438,10,3,4,8,67
1.4860811618156597,10,3,4,8,68
1.483187135384966,10,3,4,8,69
1.5073242724774214,10,3,4,8,70
1.5220745038419012,10,3,4,8,71
1.5021846786337996,10,3,4,8,72
1.5220479154771993,10,3,4,8,73
1.5221719059660468,10,3,4,8,74
1.5221719059660468,10,3,4,8,75
1.5584391041387602,10,3,4,8,76
1.5220745038419012,10,3,4,8,77
1.5220745038419012,10,3,4,8,78
1.5073242724774214,10,3,4,8,79
1.4832820489894756,10,3,4,8,80
1.5429208317352616,10,3,4,8,81
1.5021846786337996,10,3,4,8,82
1.5390168146989438,10,3,4,8,83
1.5074207306899101,10,3,4,8,84
1.5388914520861854,10,3,4,8,85
1.5220745038419012,10,3,4,8,86
1.4657029825240662,10,3,4,8,87
1.5021846786337996,10,3,4,8,88
1.5220745038419012,10,3,4,8,89
1.52939627358921,10,3,4,8,90
1.5021846786337996,10,3,4,8,91
1.4721122336804717,10,3,4,8,92
1.5221453124966993,10,3,4,8,93
1.5221719059660468,10,3,4,8,94
1.5022808079482246,10,3,4,8,95
1.5022109143187592,10,3,4,8,96
1.5221719059660468,10,3,4,8,97
1.5221719059660468,10,3,4,8,98
1.5388914520861854,10,3,4,8,99
1.5221719059660468,10,3,4,8,100
1.5073242724774214,10,3,4,8,101
1.483187135384966,10,3,4,8,102
1.5221984941310005,10,3,4,8,103
1.507297941777196,10,3,4,8,104
1.5022808079482246,10,3,4,8,105
1.5021584377145905,10,3,4,8,106
1.5221719059660468,10,3,4,8,107
1.5221719059660468,10,3,4,8,108
1.5584391041387602,10,3,4,8,109
1.5074207306899101,10,3,4,8,110
1.4862713711380926,10,3,4,8,111
1.5221719059660468,10,3,4,8,112
1.4861762606176225,10,3,4,8,113
1.5022808079482246,10,3,4,8,114
1.5022545619910752,10,3,4,8,115
1.5022808079482246,10,3,4,8,116
1.5390168146989438,10,3,4,8,117
1.5022808079482246,10,3,4,8,118
1.5221453124966993,10,3,4,8,119
1.5074207306899101,10,3,4,8,120
1.5220745038419012,10,3,4,8,121
1.5584391041387602,10,3,4,8,122
1.5221719059660468,10,3,4,8,123
1.5220479154771993,10,3,4,8,124
1.5388914520861854,10,3,4,8,125
1.5220745038419012,10,3,4,8,126
1.5022808079482246,10,3,4,8,127
1.4861762606176225,10,3,4,8,128
1.5584391041387602,10,3,4,8,129
1.4860811618156597,10,3,5,1,131
1.483187135384966,10,3,5,1,132
1.557887541883248,10,3,5,1,133
1.5028265226293473,10,3,5,1,134
1.5389183346874158,10,3,5,1,135
1.4657029825240662,10,3,5,1,136
1.5203798573667104,10,3,5,1,137
1.5021846786337996,10,3,5,1,138
1.5577878543544186,10,3,5,1,139
1.5388914520861854,10,3,5,1,140
1.483187135384966,10,3,5,1,141
1.5405925890371668,10,3,5,1,142
1.5021846786337996,10,3,5,1,143
1.5389183346874158,10,3,5,1,144
1.5583393813160622,10,3,5,1,145
1.5220479154771993,10,3,5,1,146
1.5583393813160622,10,3,5,1,147
1.5221719059660468,10,3,5,1,148
1.5220745038419012,10,3,5,1,149
1.5073242724774214,10,3,5,1,150
1.5220745038419012,10,3,5,1,151
1.5021846786337996,10,3,5,1,152
1.4860811618156597,10,3,5,1,153
1.5577878543544186,10,3,5,1,154
1.5577878543544186,10,3,5,1,155
1.5220745038419012,10,3,5,1,156
1.5021584377145905,10,3,5,1,157
1.5021846786337996,10,3,5,1,158
1.5389183346874158,10,3,5,1,159
1.5583393813160622,10,3,5,1,160
1.5220479154771993,10,3,5,1,161
1.5021846786337996,10,3,5,1,162
1.5021846786337996,10,3,5,1,163
1.5021584377145905,10,3,5,1,164
1.5220479154771993,10,3,5,1,165
1.5389183346874158,10,3,5,1,166
1.5220745038419012,10,3,5,1,167
1.520353298604947,10,3,5,1,168
1.4860811618156597,10,3,5,1,169
1.5220479154771993,10,3,5,1,170
1.5389183346874158,10,3,5,1,171
1.4860811618156597,10,3,5,1,172
1.5220745038419012,10,3,5,1,173
1.5389183346874158,10,3,5,1,174
1.5022545619910752,10,3,5,1,175
1.5021846786337996,10,3,5,1,176
1.5388914520861854,10,3,5,1,177
1.5021846786337996,10,3,5,1,178
1.5389183346874158,10,3,5,1,179
1.5221453124966993,10,3,5,1,180
1.5203798573667104,10,3,5,1,181
1.4860552022008002,10,3,5,1,182
1.520353298604947,10,3,5,1,183
1.5390168146989438,10,3,5,1,184
1.4860811618156597,10,3,5,1,185
1.5203798573667104,10,3,5,1,186
1.5388198668088935,10,3,5,1,187
1.5021846786337996,10,3,5,1,188
1.4860552022008002,10,3,5,1,189
1.4860552022008002,10,3,5,1,190
1.5021846786337996,10,3,5,1,191
1.5220745038419012,10,3,5,1,192
1.5389183346874158,10,3,5,1,193
1.5221453124966993,10,3,5,1,194
1.483161226324419,10,3,5,1,195
1.5021846786337996,10,3,5,1,196
1.5220745038419012,10,3,5,1,197
1.4860811618156597,10,3,5,1,198
1.4860811618156597,10,3,5,1,199
1.5020885611627683,10,3,5,1,200
1.5388914520861854,10,3,5,1,201
1.5389183346874158,10,3,5,1,202
1.5220479154771993,10,3,5,1,203
1.5220745038419012,10,3,5,1,204
1.4861762606176225,10,3,5,1,205
1.5021584377145905,10,3,5,1,206
1.5203798573667104,10,3,5,1,207
1.5203798573667104,10,3,5,1,208
1.5220745038419012,10,3,5,1,209
1.5203798573667104,10,3,5,1,210
1.5203798573667104,10,3,5,1,211
1.5022808079482246,10,3,5,1,212
1.465796777265062,10,3,5,1,213
1.4832820489894756,10,3,5,1,214
1.5203798573667104,10,3,5,1,215
1.5203798573667104,10,3,5,1,216
1.5021846786337996,10,3,5,1,217
1.520353298604947,10,3,5,1,218
1.5203798573667104,10,3,5,1,219
1.5388198668088935,10,3,5,1,220
1.4860552022008002,10,3,5,1,221
1.5220745038419012,10,3,5,1,222
1.4860811618156597,10,3,5,1,223
1.5203798573667104,10,3,5,1,224
1.5389183346874158,10,3,5,1,225
1.483187135384966,10,3,5,1,226
1.5389183346874158,10,3,5,1,227
1.5220745038419012,10,3,5,1,228
1.4832561349547013,10,3,5,1,229
1.520353298604947,10,3,5,2,231
1.5389183346874158,10,3,5,2,232
1.5220745038419012,10,3,5,2,233
1.5203798573667104,10,3,5,2,234
1.5204771510453323,10,3,5,2,235
1.5021846786337996,10,3,5,2,236
1.4722321562621703,10,3,5,2,237
1.520353298604947,10,3,5,2,238
1.4860811618156597,10,3,5,2,239
1.5021584377145905,10,3,5,2,240
1.5389183346874158,10,3,5,2,241
1.5022808079482246,10,3,5,2,242
1.5583393813160622,10,3,5,2,243
1.5021846786337996,10,3,5,2,244
1.5203798573667104,10,3,5,2,245
1.4860811618156597,10,3,5,2,246
1.5220036916765871,10,3,5,2,247
1.5203798573667104,10,3,5,2,248
1.5389183346874158,10,3,5,2,249
1.4860552022008002,10,3,5,2,250
1.4860811618156597,10,3,5,2,251
1.5219771137179632,10,3,5,2,252
1.5390168146989438,10,3,5,2,253
1.5022808079482246,10,3,5,2,254
1.5388914520861854,10,3,5,2,255
1.5389452119264007,10,3,5,2,0
1.5388914520861854,10,3,5,2,1
1.5390168146989438,10,3,5,2,2
1.5021846786337996,10,3,5,2,3
1.5388198668088935,10,3,5,2,4
1.5021846786337996,10,3,5,2,5
1.5203798573667104,10,3,5,2,6
1.5021846786337996,10,3,5,2,7
1.5220745038419012,10,3,5,2,8
1.4860811618156597,10,3,5,2,9
1.5389183346874158,10,3,5,2,10
1.5405925890371668,10,3,5,2,11
1.5220479154771993,10,3,5,2,12
1.4462262972402598,10,3,5,2,13
1.4503795710550944,10,3,5,2,14
1.483161226324419,10,3,5,2,15
1.5021846786337996,10,3,5,2,16
1.5021846786337996,10,3,5,2,17
1.5027566126650436,10,3,5,2,18
1.483161226324419,10,3,5,2,19
1.5021584377145905,10,3,5,2,20
1.4657029825240662,10,3,5,2,21
1.5021846786337996,10,3,5,2,22
1.4656773788855149,10,3,5,2,23
1.4860811618156597,10,3,5,2,24
1.5203798573667104,10,3,5,2,25
1.5389183346874158,10,3,5,2,26
1.5021584377145905,10,3,5,2,27
1.5389183346874158,10,3,5,2,28
1.5220745038419012,10,3,5,2,29
1.520353298604947,10,3,5,2,30
1.5219771137179632,10,3,5,2,31
1.4462262972402598,10,3,5,2,32
1.5219505304566245,10,3,5,2,33
1.483187135384966,10,3,5,2,34
1.5021584377145905,10,3,5,2,35
1.4860811618156597,10,3,5,2,36
1.483187135384966,10,3,5,2,37
1.520353298604947,10,3,5,2,38
1.5021846786337996,10,3,5,2,39
1.5203798573667104,10,3,5,2,40
1.5021846786337996,10,3,5,2,41
1.483187135384966,10,3,5,2,42
1.5021584377145905,10,3,5,2,43
1.5021846786337996,10,3,5,2,44
1.483187135384966,10,3,5,2,45
1.5203798573667104,10,3,5,2,46
1.5220745038419012,10,3,5,2,47
1.5021846786337996,10,3,5,2,48
1.483161226324419,10,3,5,2,49
1.5027566126650436,10,3,5,2,50
1.5220479154771993,10,3,5,2,51
1.5021846786337996,10,3,5,2,52
1.5389183346874158,10,3,5,2,53
1.5220745038419012,10,3,5,2,54
1.4860811618156597,10,3,5,2,55
1.520353298604947,10,3,5,2,56
1.5021584377145905,10,3,5,2,57
1.5389183346874158,10,3,5,2,58
1.5021584377145905,10,3,5,2,59
1.5021846786337996,10,3,5,2,60
1.5220479154771993,10,3,5,2,61
1.5021846786337996,10,3,5,2,62
1.4860811618156597,10,3,5,2,63
1.5405925890371668,10,3,5,2,64
1.483187135384966,10,3,5,2,65
1.4657029825240662,10,3,5,2,66
1.465116584027892,10,3,5,2,67
1.5220745038419012,10,3,5,2,68
1.5390168146989438,10,3,5,2,69
1.5021584377145905,10,3,5,2,70
1.4657029825240662,10,3,5,2,71
1.5021846786337996,10,3,5,2,72
1.5388914520861854,10,3,5,2,73
1.483187135384966,10,3,5,4,75
1.5389183346874158,10,3,5,4,76
1.5021846786337996,10,3,5,4,77
1.5389183346874158,10,3,5,4,78
1.483161226324419,10,3,5,4,79
1.5405925890371668,10,3,5,4,80
1.520353298604947,10,3,5,4,81
1.5022545619910752,10,3,5,4,82
1.5021846786337996,10,3,5,4,83
1.5027303617550023,10,3,5,4,84
1.5021846786337996,10,3,5,4,85
1.4656773788855149,10,3,5,4,86
1.520353298604947,10,3,5,4,87
1.5022109143187592,10,3,5,4,88
1.5203798573667104,10,3,5,4,89
1.5022545619910752,10,3,5,4,90
1.4860811618156597,10,3,5,4,91
1.5203798573667104,10,3,5,4,92
1.5021846786337996,10,3,5,4,93
1.465116584027892,10,3,5,4,94
1.5389183346874158,10,3,5,4,95
1.5388914520861854,10,3,5,4,96
1.5203798573667104,10,3,5,4,97
1.483187135384966,10,3,5,4,98
1.4657029825240662,10,3,5,4,99
1.465796777265062,10,3,5,4,100
1.5388914520861854,10,3,5,4,101
1.520353298604947,10,3,5,4,102
1.5577878543544186,10,3,5,4,103
1.483161226324419,10,3,5,4,104
1.502852778579247,10,3,5,4,105
1.5389183346874158,10,3,5,4,106
1.5204064108308244,10,3,5,4,107
1.5389183346874158,10,3,5,4,108
1.5021846786337996,10,3,5,4,109
1.5243311018250287,10,3,5,4,110
1.5021846786337996,10,3,5,4,111
1.5405925890371668,10,3,5,4,112
1.520353298604947,10,3,5,4,113
1.5577878543544186,10,3,5,4,114
1.520353298604947,10,3,5,4,115
1.5405925890371668,10,3,5,4,116
1.5203798573667104,10,3,5,4,117
1.5388914520861854,10,3,5,4,118
1.5203798573667104,10,3,5,4,119
1.5577878543544186,10,3,5,4,120
1.5203798573667104,10,3,5,4,121
1.5204771510453323,10,3,5,4,122
1.5021846786337996,10,3,5,4,123
1.5022808079482246,10,3,5,4,124
1.5204771510453323,10,3,5,4,125
1.5021846786337996,10,3,5,4,126
1.5388914520861854,10,3,5,4,127
1.5203798573667104,10,3,5,4,128
1.5203798573667104,10,3,5,4,129
1.5203798573667104,10,3,5,4,130
1.557887541883248,10,3,5,4,131
1.4860811618156597,10,3,5,4,132
1.5204771510453323,10,3,5,4,133
1.538989926936578,10,3,5,4,134
1.5220479154771993,10,3,5,4,135
1.5220745038419012,10,3,5,4,136
1.5406642591745654,10,3,5,4,137
1.5203798573667104,10,3,5,4,138
1.5021846786337996,10,3,5,4,139
1.5389183346874158,10,3,5,4,140
1.5577878543544186,10,3,5,4,141
1.4832820489894756,10,3,5,4,142
1.5021846786337996,10,3,5,4,143
1.5388914520861854,10,3,5,4,144
1.5021846786337996,10,3,5,4,145
1.5577878543544186,10,3,5,4,146
1.5389183346874158,10,3,5,4,147
1.5389183346874158,10,3,5,4,148
1.520450587184607,10,3,5,4,149
1.483187135384966,10,3,5,4,150
1.5220745038419012,10,3,5,4,151
1.5578150611499357,10,3,5,4,152
1.5021846786337996,10,3,5,4,153
1.5389183346874158,10,3,5,4,154
1.5389183346874158,10,3,5,4,155
1.5021846786337996,10,3,5,4,156
1.5388914520861854,10,3,5,4,157
1.5203798573667104,10,3,5,4,158
1.5021846786337996,10,3,5,4,159
1.5389183346874158,10,3,5,4,160
1.5578150611499357,10,3,5,4,161
1.5389183346874158,10,3,5,4,162
1.520450587184607,10,3,5,4,163
1.5022545619910752,10,3,5,4,164
1.5203798573667104,10,3,5,4,165
1.5021846786337996,10,3,5,4,166
1.5021846786337996,10,3,5,4,167
1.5021846786337996,10,3,5,4,168
1.483187135384966,10,3,5,4,169
1.4832820489894756,10,3,5,4,170
1.4462010338302653,10,3,5,4,171
1.5204064108308244,10,3,5,4,172
1.5027303617550023,10,3,5,4,173
3.7759421915915614,10,3,5,5,175
3.7759421915915614,10,3,5,5,176
3.7759421915915614,10,3,5,5,177
3.7759421915915614,10,3,5,5,178
3.7624912453379387,10,3,5,5,179
3.7760081384962083,10,3,5,5,180
3.815353851803106,10,3,5,5,181
3.7761178527609105,10,3,5,5,182
3.7759421915915614,10,3,5,5,183
3.7759421915915614,10,3,5,5,184
3.7759421915915614,10,3,5,5,185
3.801797344347678,10,3,5,5,186
3.7759421915915614,10,3,5,5,187
3.7624912453379387,10,3,5,5,188
3.7624912453379387,10,3,5,5,189
3.8017309326352025,10,3,5,5,190
3.7759421915915614,10,3,5,5,191
3.775876231529928,10,3,5,5,192
3.7624912453379387,10,3,5,5,193
3.7624912453379387,10,3,5,5,194
3.7759421915915614,10,3,5,5,195
3.801797344347678,10,3,5,5,196
3.7759421915915614,10,3,5,5,197
3.775876231529928,10,3,5,5,198
3.762250501873821,10,3,5,5,199
3.7759421915915614,10,3,5,5,200
3.7759421915915614,10,3,5,5,201
3.7759421915915614,10,3,5,5,202
3.775876231529928,10,3,5,5,203
3.7624255202442147,10,3,5,5,204
3.7759421915915614,10,3,5,5,205
3.7759421915915614,10,3,5,5,206
3.7759421915915614,10,3,5,5,207
3.7624255202442147,10,3,5,5,208
3.7759421915915614,10,3,5,5,209
3.7759421915915614,10,3,5,5,210
3.7759421915915614,10,3,5,5,211
3.7759421915915614,10,3,5,5,212
3.7624255202442147,10,3,5,5,213
3.7759421915915614,10,3,5,5,214
3.7759421915915614,10,3,5,5,215
3.7759421915915614,10,3,5,5,216
3.776183825486081,10,3,5,5,217
3.7624912453379387,10,3,5,5,218
3.775876231529928,10,3,5,5,219
3.775876231529928,10,3,5,5,220
3.762250501873821,10,3,5,5,221
3.7759421915915614,10,3,5,5,222
3.7759421915915614,10,3,5,5,223
3.7759421915915614,10,3,5,5,224
3.801797344347678,10,3,5,5,225
3.775876231529928,10,3,5,5,226
3.7759421915915614,10,3,5,5,227
3.7759421915915614,10,3,5,5,228
3.7624912453379387,10,3,5,5,229
3.7624255202442147,10,3,5,5,230
3.776183825486081,10,3,5,5,231
3.7759421915915614,10,3,5,5,232
3.7759421915915614,10,3,5,5,233
3.7624912453379387,10,3,5,5,234
3.7759421915915614,10,3,5,5,235
3.7759421915915614,10,3,5,5,236
3.7759421915915614,10,3,5,5,237
3.801797344347678,10,3,5,5,238
3.7759421915915614,10,3,5,5,239
3.801797344347678,10,3,5,5,240
3.7759421915915614,10,3,5,5,241
3.776183825486081,10,3,5,5,242
3.7759421915915614,10,3,5,5,243
3.801797344347678,10,3,5,5,244
3.7627320184659623,10,3,5,5,245
3.7759421915915614,10,3,5,5,246
3.776183825486081,10,3,5,5,247
3.775876231529928,10,3,5,5,248
3.776183825486081,10,3,5,5,249
3.7759421915915614,10,3,5,5,250
3.7624912453379387,10,3,5,5,251
3.7759421915915614,10,3,5,5,252
3.7759421915915614,10,3,5,5,253
3.7759421915915614,10,3,5,5,254
3.7760081384962083,10,3,5,5,255
3.8151097114612194,10,3,5,5,0
3.8151097114612194,10,3,5,5,1
3.7759421915915614,10,3,5,5,2
3.7759421915915614,10,3,5,5,3
3.776183825486081,10,3,5,5,4
3.7759421915915614,10,3,5,5,5
3.776183825486081,10,3,5,5,6
3.7759421915915614,10,3,5,5,7
3.7759421915915614,10,3,5,5,8
3.775876231529928,10,3,5,5,9
3.7759421915915614,10,3,5,5,10
3.7759421915915614,10,3,5,5,11
3.80197420832844,10,3,5,5,12
3.7759421915915614,10,3,5,5,13
3.80197420832844,10,3,5,5,14
3.8015540858779913,10,3,5,5,15
3.801797344347678,10,3,5,5,16
3.801797344347678,10,3,5,5,17
1.4657029825240662,10,3,5,6,19
1.5073242724774214,10,3,5,6,20
1.5203798573667104,10,3,5,6,21
1.5389183346874158,10,3,5,6,22
1.4860811618156597,10,3,5,6,23
1.5021584377145905,10,3,5,6,24
1.5022109143187592,10,3,5,6,25
1.4860811618156597,10,3,5,6,26
1.472137949728274,10,3,5,6,27
1.483161226324419,10,3,5,6,28
1.5220745038419012,10,3,5,6,29
1.5021846786337996,10,3,5,6,30
1.5389183346874158,10,3,5,6,31
1.4860811618156597,10,3,5,6,32
1.4860811618156597,10,3,5,6,33
1.4860811618156597,10,3,5,6,34
1.5021846786337996,10,3,5,6,35
1.5220745038419012,10,3,5,6,36
1.5021846786337996,10,3,5,6,37
1.5021846786337996,10,3,5,6,38
1.5021584377145905,10,3,5,6,39
1.5219771137179632,10,3,5,6,40
1.5021846786337996,10,3,5,6,41
1.5021846786337996,10,3,5,6,42
1.5220745038419012,10,3,5,6,43
1.5390168146989438,10,3,5,6,44
1.5073242724774214,10,3,5,6,45
1.5220745038419012,10,3,5,6,46
1.5221010869030493,10,3,5,6,47
1.5220479154771993,10,3,5,6,48
1.5022545619910752,10,3,5,6,49
1.4860811618156597,10,3,5,6,50
1.5021584377145905,10,3,5,6,51
1.5021846786337996,10,3,5,6,52
1.5220745038419012,10,3,5,6,53
1.5220479154771993,10,3,5,6,54
1.5389452119264007,10,3,5,6,55
1.4860811618156597,10,3,5,6,56
1.5022109143187592,10,3,5,6,57
1.5220745038419012,10,3,5,6,58
1.5389183346874158,10,3,5,6,59
1.5073242724774214,10,3,5,6,60
1.5021846786337996,10,3,5,6,61
1.4860811618156597,10,3,5,6,62
1.465796777265062,10,3,5,6,63
1.5220745038419012,10,3,5,6,64
1.5219505304566245,10,3,5,6,65
1.5389183346874158,10,3,5,6,66
1.4657029825240662,10,3,5,6,67
1.5220745038419012,10,3,5,6,68
1.5073242724774214,10,3,5,6,69
1.5021846786337996,10,3,5,6,70
1.5220479154771993,10,3,5,6,71
1.4503542350936194,10,3,5,6,72
1.5021846786337996,10,3,5,6,73
1.5220745038419012,10,3,5,6,74
1.5021584377145905,10,3,5,6,75
1.4860811618156597,10,3,5,6,76
1.483161226324419,10,3,5,6,77
1.5220745038419012,10,3,5,6,78
1.5388198668088935,10,3,5,6,79
1.5220479154771993,10,3,5,6,80
1.4860811618156597,10,3,5,6,81
1.5583393813160622,10,3,5,6,82
1.4860811618156597,10,3,5,6,83
1.5220479154771993,10,3,5,6,84
1.5021846786337996,10,3,5,6,85
1.5220745038419012,10,3,5,6,86
1.5021846786337996,10,3,5,6,87
1.5220479154771993,10,3,5,6,88
1.5220745038419012,10,3,5,6,89
1.5203798573667104,10,3,5,6,90
1.5220479154771993,10,3,5,6,91
1.5389183346874158,10,3,5,6,92
1.5220479154771993,10,3,5,6,93
1.5220745038419012,10,3,5,6,94
1.4860811618156597,10,3,5,6,95
1.5388914520861854,10,3,5,6,96
1.5220745038419012,10,3,5,6,97
1.5220745038419012,10,3,5,6,98
1.5021584377145905,10,3,5,6,99
1.5427951511157267,10,3,5,6,100
1.5022808079482246,10,3,5,6,101
1.4860552022008002,10,3,5,6,102
1.5389183346874158,10,3,5,6,103
1.5389183346874158,10,3,5,6,104
1.5203798573667104,10,3,5,6,105
1.5021846786337996,10,3,5,6,106
1.5220745038419012,10,3,5,6,107
1.4657029825240662,10,3,5,6,108
1.5021584377145905,10,3,5,6,109
1.5220745038419012,10,3,5,6,110
1.5220745038419012,10,3,5,6,111
1.5583665977440084,10,3,5,6,112
1.5021846786337996,10,3,5,6,113
1.5389183346874158,10,3,5,6,114
1.5389183346874158,10,3,5,6,115
1.4860811618156597,10,3,5,6,116
1.5389183346874158,10,3,5,6,117
1.5221719059660468,10,3,5,7,119
1.5021846786337996,10,3,5,7,120
1.5220745038419012,10,3,5,7,121
1.5389183346874158,10,3,5,7,122
1.4861762606176225,10,3,5,7,123
1.5220745038419012,10,3,5,7,124
1.5021846786337996,10,3,5,7,125
1.5073242724774214,10,3,5,7,126
1.5389183346874158,10,3,5,7,127
1.5220479154771993,10,3,5,7,128
1.5073943949345079,10,3,5,7,129
1.5021846786337996,10,3,5,7,130
1.507297941777196,10,3,5,7,131
1.5203798573667104,10,3,5,7,132
1.5021584377145905,10,3,5,7,133
1.4860811618156597,10,3,5,7,134
1.4860552022008002,10,3,5,7,135
1.5220745038419012,10,3,5,7,136
1.5021846786337996,10,3,5,7,137
1.5220745038419012,10,3,5,7,138
1.5021846786337996,10,3,5,7,139
1.5429208317352616,10,3,5,7,140
1.5584391041387602,10,3,5,7,141
1.5220745038419012,10,3,5,7,142
1.5021846786337996,10,3,5,7,143
1.5220745038419012,10,3,5,7,144
1.5220745038419012,10,3,5,7,145
1.5220745038419012,10,3,5,7,146
1.5021846786337996,10,3,5,7,147
1.5388914520861854,10,3,5,7,148
1.4860552022008002,10,3,5,7,149
1.5583393813160622,10,3,5,7,150
1.4860811618156597,10,3,5,7,151
1.4860811618156597,10,3,5,7,152
1.4657029825240662,10,3,5,7,153
1.5021846786337996,10,3,5,7,154
1.5021846786337996,10,3,5,7,155
1.4721122336804717,10,3,5,7,156
1.5389183346874158,10,3,5,7,157
1.5203798573667104,10,3,5,7,158
1.5220745038419012,10,3,5,7,159
1.5221719059660468,10,3,5,7,160
1.5220745038419012,10,3,5,7,161
1.5220745038419012,10,3,5,7,162
1.5021584377145905,10,3,5,7,163
1.5073242724774214,10,3,5,7,164
1.5203798573667104,10,3,5,7,165
1.5220479154771993,10,3,5,7,166
1.5220745038419012,10,3,5,7,167
1.5220745038419012,10,3,5,7,168
1.4861762606176225,10,3,5,7,169
1.5221719059660468,10,3,5,7,170
1.538989926936578,10,3,5,7,171
1.4861502960188298,10,3,5,7,172
1.5389183346874158,10,3,5,7,173
1.4860811618156597,10,3,5,7,174
1.5583393813160622,10,3,5,7,175
1.5220745038419012,10,3,5,7,176
1.5203798573667104,10,3,5,7,177
1.5390168146989438,10,3,5,7,178
1.507297941777196,10,3,5,7,179
1.4860811618156597,10,3,5,7,180
1.5021846786337996,10,3,5,7,181
1.5220745038419012,10,3,5,7,182
1.5021846786337996,10,3,5,7,183
1.5073242724774214,10,3,5,7,184
1.5388914520861854,10,3,5,7,185
1.5073242724774214,10,3,5,7,186
1.5389183346874158,10,3,5,7,187
1.5021584377145905,10,3,5,7,188
1.5220745038419012,10,3,5,7,189
1.5021846786337996,10,3,5,7,190
1.5021846786337996,10,3,5,7,191
1.5021846786337996,10,3,5,7,192
1.4657029825240662,10,3,5,7,193
1.4860811618156597,10,3,5,7,194
1.4860811618156597,10,3,5,7,195
1.4657029825240662,10,3,5,7,196
1.4657029825240662,10,3,5,7,197
1.4860811618156597,10,3,5,7,198
1.5021846786337996,10,3,5,7,199
1.5220479154771993,10,3,5,7,200
1.5022808079482246,10,3,5,7,201
1.4860811618156597,10,3,5,7,202
1.4860552022008002,10,3,5,7,203
1.5022109143187592,10,3,5,7,204
1.5220479154771993,10,3,5,7,205
1.5021846786337996,10,3,5,7,206
1.465796777265062,10,3,5,7,207
1.5021846786337996,10,3,5,7,208
1.5221453124966993,10,3,5,7,209
1.4860811618156597,10,3,5,7,210
1.5220745038419012,10,3,5,7,211
1.4861762606176225,10,3,5,7,212
1.520450587184607,10,3,5,7,213
1.5221719059660468,10,3,5,7,214
1.5073242724774214,10,3,5,7,215
1.5221010869030493,10,3,5,7,216
1.5021584377145905,10,3,5,7,217
1.5022808079482246,10,3,5,8,219
1.5583121594581995,10,3,5,8,220
1.5022545619910752,10,3,5,8,221
1.5220745038419012,10,3,5,8,222
1.5220745038419012,10,3,5,8,223
1.4860811618156597,10,3,5,8,224
1.5583121594581995,10,3,5,8,225
1.5220745038419012,10,3,5,8,226
1.5074207306899101,10,3,5,8,227
1.5428221019099306,10,3,5,8,228
1.507297941777196,10,3,5,8,229
1.5073242724774214,10,3,5,8,230
1.5073943949345079,10,3,5,8,231
1.5220745038419012,10,3,5,8,232
1.5221719059660468,10,3,5,8,233
1.5021846786337996,10,3,5,8,234
1.5427951511157267,10,3,5,8,235
1.5074207306899101,10,3,5,8,236
1.5220479154771993,10,3,5,8,237
1.5073242724774214,10,3,5,8,238
1.5073242724774214,10,3,5,8,239
1.5074207306899101,10,3,5,8,240
1.5388914520861854,10,3,5,8,241
1.4860811618156597,10,3,5,8,242
1.5220745038419012,10,3,5,8,243
1.520353298604947,10,3,5,8,244
1.5389183346874158,10,3,5,8,245
1.5389183346874158,10,3,5,8,246
1.5073242724774214,10,3,5,8,247
1.5021846786337996,10,3,5,8,248
1.5583393813160622,10,3,5,8,249
1.5389183346874158,10,3,5,8,250
1.4722321562621703,10,3,5,8,251
1.5072278261488474,10,3,5,8,252
1.5074207306899101,10,3,5,8,253
1.4859860747301288,10,3,5,8,254
1.5583393813160622,10,3,5,8,255
1.5220745038419012,10,3,5,8,0
1.4832820489894756,10,3,5,8,1
1.5220479154771993,10,3,5,8,2
1.5583393813160622,10,3,5,8,3
1.5204771510453323,10,3,5,8,4
1.5022545619910752,10,3,5,8,5
1.4657029825240662,10,3,5,8,6
1.538989926936578,10,3,5,8,7
1.5021846786337996,10,3,5,8,8
1.5221719059660468,10,3,5,8,9
1.5221719059660468,10,3,5,8,10
1.5390168146989438,10,3,5,8,11
1.5220745038419012,10,3,5,8,12
1.5583665977440084,10,3,5,8,13
1.4861502960188298,10,3,5,8,14
1.5220745038419012,10,3,5,8,15
1.538989926936578,10,3,5,8,16
1.5388914520861854,10,3,5,8,17
1.5073242724774214,10,3,5,8,18
1.5073943949345079,10,3,5,8,19
1.5389183346874158,10,3,5,8,20
1.5021584377145905,10,3,5,8,21
1.5389183346874158,10,3,5,8,22
1.5073242724774214,10,3,5,8,23
1.5220745038419012,10,3,5,8,24
1.4860811618156597,10,3,5,8,25
1.5022109143187592,10,3,5,8,26
1.5389183346874158,10,3,5,8,27
1.483187135384966,10,3,5,8,28
1.4860811618156597,10,3,5,8,29
1.5220479154771993,10,3,5,8,30
1.4860811618156597,10,3,5,8,31
1.5582396707794877,10,3,5,8,32
1.5022808079482246,10,3,5,8,33
1.4860811618156597,10,3,5,8,34
1.5021846786337996,10,3,5,8,35
1.5021846786337996,10,3,5,8,36
1.5203798573667104,10,3,5,8,37
1.5220479154771993,10,3,5,8,38
1.4861762606176225,10,3,5,8,39
1.5021846786337996,10,3,5,8,40
1.4860552022008002,10,3,5,8,41
1.5203798573667104,10,3,5,8,42
1.5388914520861854,10,3,5,8,43
1.4860552022008002,10,3,5,8,44
1.5221453124966993,10,3,5,8,45
1.4860552022008002,10,3,5,8,46
1.4860811618156597,10,3,5,8,47
1.5021584377145905,10,3,5,8,48
1.5220745038419012,10,3,5,8,49
1.5203798573667104,10,3,5,8,50
1.5073242724774214,10,3,5,8,51
1.5219771137179632,10,3,5,8,52
1.5220745038419012,10,3,5,8,53
1.5220479154771993,10,3,5,8,54
1.5220479154771993,10,3,5,8,55
1.5220479154771993,10,3,5,8,56
1.5389183346874158,10,3,5,8,57
1.472137949728274,10,3,5,8,58
1.5389183346874158,10,3,5,8,59
1.4657029825240662,10,3,5,8,60
1.5429208317352616,10,3,5,8,61
1.4860811618156597,10,3,5,8,62
1.4860811618156597,10,3,5,8,63
1.4860811618156597,10,3,5,8,64
1.5021584377145905,10,3,5,8,65
1.5021846786337996,10,3,5,8,66
1.5021846786337996,10,3,5,8,67
1.5389183346874158,10,3,5,8,68
1.5220745038419012,10,3,5,8,69
1.4860811618156597,10,3,5,8,70
1.4860811618156597,10,3,5,8,71
1.4503795710550944,10,3,5,8,72
1.4861762606176225,10,3,5,8,73
1.4503542350936194,10,3,5,8,74
1.4503795710550944,10,3,5,8,75
1.5220745038419012,10,3,5,8,76
1.5220479154771993,10,3,5,8,77
1.465090990632845,10,3,5,8,78
1.5021846786337996,10,3,5,8,79
1.5074207306899101,10,3,5,8,80
1.5220745038419012,10,3,5,8,81
1.5388914520861854,10,3,5,8,82
1.4860811618156597,10,3,5,8,83
1.5219771137179632,10,3,5,8,84
1.5022808079482246,10,3,5,8,85
1.5220745038419012,10,3,5,8,86
1.5204771510453323,10,3,5,8,87
1.5021584377145905,10,3,5,8,88
1.5220745038419012,10,3,5,8,89
1.5073242724774214,10,3,5,8,90
1.483187135384966,10,3,5,8,91
1.5220745038419012,10,3,5,8,92
1.5219771137179632,10,3,5,8,93
1.5388914520861854,10,3,5,8,94
1.5021846786337996,10,3,5,8,95
1.5220479154771993,10,3,5,8,96
1.5220745038419012,10,3,5,8,97
1.5388914520861854,10,3,5,8,98
1.5220745038419012,10,3,5,8,99
1.5220745038419012,10,3,5,8,100
1.507297941777196,10,3,5,8,101
1.5021846786337996,10,3,5,8,102
1.5073242724774214,10,3,5,8,103
1.5021846786337996,10,3,5,8,104
1.5021846786337996,10,3,5,8,105
1.4860811618156597,10,3,5,8,106
1.483187135384966,10,3,5,8,107
1.4860811618156597,10,3,5,8,108
1.5390168146989438,10,3,5,8,109
1.4860811618156597,10,3,5,8,110
1.5021846786337996,10,3,5,8,111
1.5389183346874158,10,3,5,8,112
1.5021584377145905,10,3,5,8,113
1.5584391041387602,10,3,5,8,114
1.5022545619910752,10,3,5,8,115
1.5220479154771993,10,3,5,8,116
1.4860811618156597,10,3,5,8,117
1.4860811618156597,10,3,5,8,118
1.5203798573667104,10,3,5,8,119
1.5220745038419012,10,3,5,8,120
1.5022808079482246,10,3,5,8,121
1.5220745038419012,10,3,5,8,122
1.5388914520861854,10,3,5,8,123
1.5221719059660468,10,3,5,8,124
1.4860811618156597,10,3,5,8,125
1.4861762606176225,10,3,5,8,126
1.5220745038419012,10,3,5,8,127
1.5021584377145905,10,3,5,8,128
1.465796777265062,10,3,5,8,129
1.5021846786337996,10,3,5,8,130
1.4860811618156597,10,3,5,8,131
1.4861762606176225,10,3,5,8,132
1.4657029825240662,10,3,5,8,133
1.5021846786337996,10,3,5,8,134
1.5583121594581995,10,3,5,8,135
1.4860811618156597,10,3,5,8,136
1.465796777265062,10,3,5,8,137
1.4722321562621703,10,3,5,8,138
1.4860811618156597,10,3,5,8,139
1.4860811618156597,10,3,5,8,140
1.5220745038419012,10,3,5,8,141
1.5220745038419012,10,3,5,8,142
1.5022545619910752,10,3,5,8,143
1.4860811618156597,10,3,5,8,144
1.5021584377145905,10,3,5,8,145
1.5221010869030493,10,3,5,8,146
1.5221719059660468,10,3,5,8,147
1.5429208317352616,10,3,5,8,148
1.5389183346874158,10,3,5,8,149
1.4860811618156597,10,3,5,8,150
1.5074207306899101,10,3,5,8,151
1.5221719059660468,10,3,5,8,152
1.5428221019099306,10,3,5,8,153
1.5389183346874158,10,3,5,8,154
1.5428221019099306,10,3,5,8,155
1.5584391041387602,10,3,5,8,156
1.5022808079482246,10,3,5,8,157
1.5073242724774214,10,3,5,8,158
1.5584391041387602,10,3,5,8,159
1.5021846786337996,10,3,5,8,160
1.5021846786337996,10,3,5,8,161
1.5289858426086047,10,3,6,1,163
1.492759305350513,10,3,6,1,164
1.4898261328875426,10,3,6,1,165
1.5090321837571714,10,3,6,1,166
1.5090321837571714,10,3,6,1,167
1.5647882330386622,10,3,6,1,168
1.5090057029515869,10,3,6,1,169
1.5289143940636292,10,3,6,1,170
1.5648888190131178,10,3,6,1,171
1.4928552612416595,10,3,6,1,172
1.492759305350513,10,3,6,1,173
1.5089087123662457,10,3,6,1,174
1.5272121321952195,10,3,6,1,175
1.5090321837571714,10,3,6,1,176
1.5090057029515869,10,3,6,1,177
1.5458067945027087,10,3,6,1,178
1.5290126740359216,10,3,6,1,179
1.5497552275763045,10,3,6,1,180
1.545833917625634,10,3,6,1,181
1.5290126740359216,10,3,6,1,182
1.5459061568462318,10,3,6,1,183
1.492829064312022,10,3,6,1,184
1.5647882330386622,10,3,6,1,185
1.5288875678098,10,3,6,1,186
1.5458067945027087,10,3,6,1,187
1.5653422384492006,10,3,6,1,188
1.565442860035615,10,3,6,1,189
1.5288875678098,10,3,6,1,190
1.5458067945027087,10,3,6,1,191
1.5090321837571714,10,3,6,1,192
1.5089351880659476,10,3,6,1,193
1.5290126740359216,10,3,6,1,194
1.5654153893239386,10,3,6,1,195
1.5272121321952195,10,3,6,1,196
1.5498548472158455,10,3,6,1,197
1.492759305350513,10,3,6,1,198
1.5653422384492006,10,3,6,1,199
1.5459332851998964,10,3,6,1,200
1.5289858426086047,10,3,6,1,201
1.5289143940636292,10,3,6,1,202
1.545833917625634,10,3,6,1,203
1.5459332851998964,10,3,6,1,204
1.5289143940636292,10,3,6,1,205
1.545833917625634,10,3,6,1,206
1.5290126740359216,10,3,6,1,207
1.5272121321952195,10,3,6,1,208
1.545833917625634,10,3,6,1,209
1.5289143940636292,10,3,6,1,210
1.5089351880659476,10,3,6,1,211
1.545833917625634,10,3,6,1,212
1.5459332851998964,10,3,6,1,213
1.545833917625634,10,3,6,1,214
1.5459061568462318,10,3,6,1,215
1.5141952057422703,10,3,6,1,216
1.545833917625634,10,3,6,1,217
1.5089351880659476,10,3,6,1,218
1.5090321837571714,10,3,6,1,219
1.5288875678098,10,3,6,1,220
1.5273103027446102,10,3,6,1,221
1.5289143940636292,10,3,6,1,222
1.5273103027446102,10,3,6,1,223
1.489852273759405,10,3,6,1,224
1.545833917625634,10,3,6,1,225
1.545833917625634,10,3,6,1,226
1.492829064312022,10,3,6,1,227
1.5459332851998964,10,3,6,1,228
1.5289143940636292,10,3,6,1,229
1.5289143940636292,10,3,6,1,230
1.5090321837571714,10,3,6,1,231
1.5141686343349194,10,3,6,1,232
1.5290126740359216,10,3,6,1,233
1.5289143940636292,10,3,6,1,234
1.5089087123662457,10,3,6,1,235
1.5289143940636292,10,3,6,1,236
1.5089351880659476,10,3,6,1,237
1.5290126740359216,10,3,6,1,238
1.489852273759405,10,3,6,1,239
1.5090057029515869,10,3,6,1,240
1.5290126740359216,10,3,6,1,241
1.5290126740359216,10,3,6,1,242
1.5459332851998964,10,3,6,1,243
1.492759305350513,10,3,6,1,244
1.51409787818875,10,3,6,1,245
1.5290126740359216,10,3,6,1,246
1.5289143940636292,10,3,6,1,247
1.5273103027446102,10,3,6,1,248
1.5290126740359216,10,3,6,1,249
1.5089351880659476,10,3,6,1,250
1.5089351880659476,10,3,6,1,251
1.5090057029515869,10,3,6,1,252
1.5141952057422703,10,3,6,1,253
1.5089351880659476,10,3,6,1,254
1.492759305350513,10,3,6,1,255
1.5290126740359216,10,3,6,1,0
1.5459332851998964,10,3,6,1,1
1.492759305350513,10,3,6,1,2
1.5476151714110293,10,3,6,1,3
1.5273103027446102,10,3,6,1,4
1.5475880135432818,10,3,6,1,5
1.4928552612416595,10,3,6,2,7
1.5289143940636292,10,3,6,2,8
1.5089351880659476,10,3,6,2,9
1.5273103027446102,10,3,6,2,10
1.492759305350513,10,3,6,2,11
1.4788225397770598,10,3,6,2,12
1.5289143940636292,10,3,6,2,13
1.5288875678098,10,3,6,2,14
1.5289143940636292,10,3,6,2,15
1.51409787818875,10,3,6,2,16
1.5458067945027087,10,3,6,2,17
1.5459061568462318,10,3,6,2,18
1.545833917625634,10,3,6,2,19
1.5089351880659476,10,3,6,2,20
1.5458067945027087,10,3,6,2,21
1.5272121321952195,10,3,6,2,22
1.5089087123662457,10,3,6,2,23
1.5090321837571714,10,3,6,2,24
1.492759305350513,10,3,6,2,25
1.5089351880659476,10,3,6,2,26
1.5273103027446102,10,3,6,2,27
1.5089351880659476,10,3,6,2,28
1.545833917625634,10,3,6,2,29
1.5089087123662457,10,3,6,2,30
1.5653422384492006,10,3,6,2,31
1.5089351880659476,10,3,6,2,32
1.5289858426086047,10,3,6,2,33
1.4928552612416595,10,3,6,2,34
1.5459332851998964,10,3,6,2,35
1.5288875678098,10,3,6,2,36
1.545833917625634,10,3,6,2,37
1.4928552612416595,10,3,6,2,38
1.5289143940636292,10,3,6,2,39
1.5497280356502752,10,3,6,2,40
1.5653422384492006,10,3,6,2,41
1.5089351880659476,10,3,6,2,42
1.5457345623488565,10,3,6,2,43
1.51409787818875,10,3,6,2,44
1.5289858426086047,10,3,6,2,45
1.545833917625634,10,3,6,2,46
1.565442860035615,10,3,6,2,47
1.5141686343349194,10,3,6,2,48
1.5090321837571714,10,3,6,2,49
1.5289143940636292,10,3,6,2,50
1.5290126740359216,10,3,6,2,51
1.5289858426086047,10,3,6,2,52
1.5090321837571714,10,3,6,2,53
1.5289143940636292,10,3,6,2,54
1.5289143940636292,10,3,6,2,55
1.5090321837571714,10,3,6,2,56
1.5089351880659476,10,3,6,2,57
1.545833917625634,10,3,6,2,58
1.5647607773442875,10,3,6,2,59
1.545833917625634,10,3,6,2,60
1.5089087123662457,10,3,6,2,61
1.492759305350513,10,3,6,2,62
1.5289143940636292,10,3,6,2,63
1.545833917625634,10,3,6,2,64
1.5289858426086047,10,3,6,2,65
1.478727489199406,10,3,6,2,66
1.5289143940636292,10,3,6,2,67
1.545833917625634,10,3,6,2,68
1.5090321837571714,10,3,6,2,69
1.4723841907835606,10,3,6,2,70
1.5090321837571714,10,3,6,2,71
1.5288161262542226,10,3,6,2,72
1.492759305350513,10,3,6,2,73
1.545833917625634,10,3,6,2,74
1.5288875678098,10,3,6,2,75
1.5459332851998964,10,3,6,2,76
1.545833917625634,10,3,6,2,77
1.5289143940636292,10,3,6,2,78
1.489852273759405,10,3,6,2,79
1.5653422384492006,10,3,6,2,80
1.5497552275763045,10,3,6,2,81
1.5090321837571714,10,3,6,2,82
1.545833917625634,10,3,6,2,83
1.527283501190853,10,3,6,2,84
1.5272121321952195,10,3,6,2,85
1.5290126740359216,10,3,6,2,86
1.5090321837571714,10,3,6,2,87
1.5289143940636292,10,3,6,2,88
1.5289143940636292,10,3,6,2,89
1.5459332851998964,10,3,6,2,90
1.5290126740359216,10,3,6,2,91
1.5653422384492006,10,3,6,2,92
1.5458067945027087,10,3,6,2,93
1.5653422384492006,10,3,6,2,94
1.5090321837571714,10,3,6,2,95
1.5653147730342751,10,3,6,2,96
1.5290126740359216,10,3,6,2,97
1.5653422384492006,10,3,6,2,98
1.5289143940636292,10,3,6,2,99
1.545833917625634,10,3,6,2,100
1.5459332851998964,10,3,6,2,101
1.5290126740359216,10,3,6,2,102
1.545833917625634,10,3,6,2,103
1.5458067945027087,10,3,6,2,104
1.5141952057422703,10,3,6,2,105
1.509509692251266,10,3,6,4,107
1.509509692251266,10,3,6,4,108
1.4899218968708114,10,3,6,4,109
1.509509692251266,10,3,6,4,110
1.489852273759405,10,3,6,4,111
1.53118113273464,10,3,6,4,112
1.5090321837571714,10,3,6,4,113
1.5271853358091902,10,3,6,4,114
1.5089351880659476,10,3,6,4,115
1.5089351880659476,10,3,6,4,116
1.5094832064713433,10,3,6,4,117
1.527283501190853,10,3,6,4,118
1.545833917625634,10,3,6,4,119
1.4899480427839846,10,3,6,4,120
1.5273103027446102,10,3,6,4,121
1.489852273759405,10,3,6,4,122
1.4527253411989693,10,3,6,4,123
1.545833917625634,10,3,6,4,124
1.4899480427839846,10,3,6,4,125
1.5089351880659476,10,3,6,4,126
1.5089351880659476,10,3,6,4,127
1.5089351880659476,10,3,6,4,128
1.452818723671419,10,3,6,4,129
1.4723841907835606,10,3,6,4,130
1.5273103027446102,10,3,6,4,131
1.5089087123662457,10,3,6,4,132
1.5273103027446102,10,3,6,4,133
1.5271853358091902,10,3,6,4,134
1.5090321837571714,10,3,6,4,135
1.545833917625634,10,3,6,4,136
1.5311542667087301,10,3,6,4,137
1.5089351880659476,10,3,6,4,138
1.4899480427839846,10,3,6,4,139
1.4722895507063847,10,3,6,4,140
1.5273103027446102,10,3,6,4,141
1.5459332851998964,10,3,6,4,142
1.5272121321952195,10,3,6,4,143
1.509509692251266,10,3,6,4,144
1.5272121321952195,10,3,6,4,145
1.4899480427839846,10,3,6,4,146
1.5089087123662457,10,3,6,4,147
1.5094832064713433,10,3,6,4,148
1.5090321837571714,10,3,6,4,149
1.5272121321952195,10,3,6,4,150
1.5094832064713433,10,3,6,4,151
1.5272121321952195,10,3,6,4,152
1.4899480427839846,10,3,6,4,153
1.489852273759405,10,3,6,4,154
1.5089351880659476,10,3,6,4,155
1.5476151714110293,10,3,6,4,156
1.545833917625634,10,3,6,4,157
1.4899480427839846,10,3,6,4,158
1.5272121321952195,10,3,6,4,159
1.5273103027446102,10,3,6,4,160
1.5089351880659476,10,3,6,4,161
1.509058659256611,10,3,6,4,162
1.527283501190853,10,3,6,4,163
1.5272121321952195,10,3,6,4,164
1.5458067945027087,10,3,6,4,165
1.5458067945027087,10,3,6,4,166
1.4723841907835606,10,3,6,4,167
1.5089351880659476,10,3,6,4,168
1.509509692251266,10,3,6,4,169
1.527283501190853,10,3,6,4,170
1.5475156957305802,10,3,6,4,171
1.5090321837571714,10,3,6,4,172
1.5090321837571714,10,3,6,4,173
1.5090321837571714,10,3,6,4,174
1.489852273759405,10,3,6,4,175
1.5272121321952195,10,3,6,4,176
1.509509692251266,10,3,6,4,177
1.5475156957305802,10,3,6,4,178
1.5272121321952195,10,3,6,4,179
1.509509692251266,10,3,6,4,180
1.492759305350513,10,3,6,4,181
1.5289143940636292,10,3,6,4,182
1.5094832064713433,10,3,6,4,183
1.4717692919074161,10,3,6,4,184
1.5272121321952195,10,3,6,4,185
1.5090057029515869,10,3,6,4,186
1.5271853358091902,10,3,6,4,187
1.545833917625634,10,3,6,4,188
1.5647607773442875,10,3,6,4,189
1.489852273759405,10,3,6,4,190
1.4899480427839846,10,3,6,4,191
1.5089351880659476,10,3,6,4,192
1.5089087123662457,10,3,6,4,193
1.4898261328875426,10,3,6,4,194
1.4359163829724177,10,3,6,4,195
1.5273103027446102,10,3,6,4,196
1.489852273759405,10,3,6,4,197
1.4716746946737347,10,3,6,4,198
1.4899480427839846,10,3,6,4,199
1.5090321837571714,10,3,6,4,200
1.5272121321952195,10,3,6,4,201
1.472358353084457,10,3,6,4,202
1.5089351880659476,10,3,6,4,203
1.5096067248721279,10,3,6,4,204
1.5271853358091902,10,3,6,4,205
1.5089087123662457,10,3,6,5,207
1.5272121321952195,10,3,6,5,208
1.5089351880659476,10,3,6,5,209
1.527283501190853,10,3,6,5,210
1.5290126740359216,10,3,6,5,211
1.5459332851998964,10,3,6,5,212
1.5288875678098,10,3,6,5,213
1.5459061568462318,10,3,6,5,214
1.5273103027446102,10,3,6,5,215
1.5273103027446102,10,3,6,5,216
1.5273103027446102,10,3,6,5,217
1.5273103027446102,10,3,6,5,218
1.5273103027446102,10,3,6,5,219
1.527283501190853,10,3,6,5,220
1.5090057029515869,10,3,6,5,221
1.5458067945027087,10,3,6,5,222
1.5089351880659476,10,3,6,5,223
1.492759305350513,10,3,6,5,224
1.5647607773442875,10,3,6,5,225
1.582968040869368,10,3,6,5,226
1.545833917625634,10,3,6,5,227
1.5271853358091902,10,3,6,5,228
1.5459332851998964,10,3,6,5,229
1.5289858426086047,10,3,6,5,230
1.5089351880659476,10,3,6,5,231
1.5290126740359216,10,3,6,5,232
1.5272121321952195,10,3,6,5,233
1.5090057029515869,10,3,6,5,234
1.5290126740359216,10,3,6,5,235
1.5089351880659476,10,3,6,5,236
1.527283501190853,10,3,6,5,237
1.545833917625634,10,3,6,5,238
1.5475156957305802,10,3,6,5,239
1.5089351880659476,10,3,6,5,240
1.5272121321952195,10,3,6,5,241
1.5458067945027087,10,3,6,5,242
1.5476151714110293,10,3,6,5,243
1.545833917625634,10,3,6,5,244
1.5271853358091902,10,3,6,5,245
1.545833917625634,10,3,6,5,246
1.527283501190853,10,3,6,5,247
1.5272121321952195,10,3,6,5,248
1.5272121321952195,10,3,6,5,249
1.492829064312022,10,3,6,5,250
1.5272121321952195,10,3,6,5,251
1.5648613580238668,10,3,6,5,252
1.5090321837571714,10,3,6,5,253
1.5458067945027087,10,3,6,5,254
1.4569909296216497,10,3,6,5,255
1.5090057029515869,10,3,6,5,0
1.5089351880659476,10,3,6,5,1
1.5459061568462318,10,3,6,5,2
1.545833917625634,10,3,6,5,3
1.5458067945027087,10,3,6,5,4
1.492759305350513,10,3,6,5,5
1.545833917625634,10,3,6,5,6
1.545833917625634,10,3,6,5,7
1.5653422384492006,10,3,6,5,8
1.5272121321952195,10,3,6,5,9
1.5647882330386622,10,3,6,5,10
1.5089351880659476,10,3,6,5,11
1.5459061568462318,10,3,6,5,12
1.5459061568462318,10,3,6,5,13
1.5475156957305802,10,3,6,5,14
1.5089351880659476,10,3,6,5,15
1.5459332851998964,10,3,6,5,16
1.5459332851998964,10,3,6,5,17
1.5089351880659476,10,3,6,5,18
1.5647607773442875,10,3,6,5,19
1.545833917625634,10,3,6,5,20
1.5459061568462318,10,3,6,5,21
1.545833917625634,10,3,6,5,22
1.5459061568462318,10,3,6,5,23
1.5459332851998964,10,3,6,5,24
1.5273103027446102,10,3,6,5,25
1.5459332851998964,10,3,6,5,26
1.5458067945027087,10,3,6,5,27
1.5272121321952195,10,3,6,5,28
1.5273103027446102,10,3,6,5,29
1.5459332851998964,10,3,6,5,30
1.5647607773442875,10,3,6,5,31
1.5288875678098,10,3,6,5,32
1.5273103027446102,10,3,6,5,33
1.5273103027446102,10,3,6,5,34
1.5459332851998964,10,3,6,5,35
1.5273103027446102,10,3,6,5,36
1.5647882330386622,10,3,6,5,37
1.545833917625634,10,3,6,5,38
1.5459061568462318,10,3,6,5,39
1.5089351880659476,10,3,6,5,40
1.5089087123662457,10,3,6,5,41
1.5089351880659476,10,3,6,5,42
1.5271853358091902,10,3,6,5,43
1.5089351880659476,10,3,6,5,44
1.5458067945027087,10,3,6,5,45
1.5090321837571714,10,3,6,5,46
1.5088382043786703,10,3,6,5,47
1.4717005170558013,10,3,6,5,48
1.5089087123662457,10,3,6,5,49
49.43906285144612,10,3,6,6,51
49.439930321937105,10,3,6,6,52
49.439930321937105,10,3,6,6,53
49.439930321937105,10,3,6,6,54
49.439930321937105,10,3,6,6,55
49.43906285144612,10,3,6,6,56
49.443108364475684,10,3,6,6,57
49.43906285144612,10,3,6,6,58
49.439930321937105,10,3,6,6,59
49.439930321937105,10,3,6,6,60
49.43906285144612,10,3,6,6,61
49.43906285144612,10,3,6,6,62
49.439930321937105,10,3,6,6,63
49.44397582840515,10,3,6,6,64
49.439930321937105,10,3,6,6,65
49.439930321937105,10,3,6,6,66
49.439930321937105,10,3,6,6,67
49.45169660914106,10,3,6,6,68
49.45487540802701,10,3,6,6,69
49.439930321937105,10,3,6,6,70
49.44397582840515,10,3,6,6,71
49.439930321937105,10,3,6,6,72
49.45169660914106,10,3,6,6,73
49.443108364475684,10,3,6,6,74
49.45169660914106,10,3,6,6,75
49.43906285144612,10,3,6,6,76
49.403156684602315,10,3,6,6,77
49.399981210028066,10,3,6,6,78
49.403156684602315,10,3,6,6,79
49.43906285144612,10,3,6,6,80
49.443108364475684,10,3,6,6,81
49.439930321937105,10,3,6,6,82
49.403156684602315,10,3,6,6,83
49.439930321937105,10,3,6,6,84
49.443108364475684,10,3,6,6,85
49.403156684602315,10,3,6,6,86
49.399981210028066,10,3,6,6,87
49.403156684602315,10,3,6,6,88
49.439930321937105,10,3,6,6,89
49.45400756375239,10,3,6,6,90
49.439930321937105,10,3,6,6,91
49.442240726691566,10,3,6,6,92
49.399981210028066,10,3,6,6,93
49.439930321937105,10,3,6,6,94
49.399981210028066,10,3,6,6,95
49.45169660914106,10,3,6,6,96
49.439930321937105,10,3,6,6,97
49.399981210028066,10,3,6,6,98
49.439930321937105,10,3,6,6,99
49.399981210028066,10,3,6,6,100
49.439930321937105,10,3,6,6,101
49.403156684602315,10,3,6,6,102
49.43906285144612,10,3,6,6,103
49.439930321937105,10,3,6,6,104
49.439930321937105,10,3,6,6,105
49.439930321937105,10,3,6,6,106
49.403156684602315,10,3,6,6,107
49.399981210028066,10,3,6,6,108
49.439930321937105,10,3,6,6,109
49.44079761860108,10,3,6,6,110
49.439930321937105,10,3,6,6,111
49.439930321937105,10,3,6,6,112
49.439930321937105,10,3,6,6,113
49.439930321937105,10,3,6,6,114
49.41493324173934,10,3,6,6,115
49.439930321937105,10,3,6,6,116
49.43906285144612,10,3,6,6,117
49.439930321937105,10,3,6,6,118
49.399981210028066,10,3,6,6,119
49.443108364475684,10,3,6,6,120
49.439930321937105,10,3,6,6,121
49.439930321937105,10,3,6,6,122
49.439930321937105,10,3,6,6,123
49.439930321937105,10,3,6,6,124
49.43906285144612,10,3,6,6,125
49.439930321937105,10,3,6,6,126
49.439930321937105,10,3,6,6,127
49.44397582840515,10,3,6,6,128
49.439930321937105,10,3,6,6,129
49.45400756375239,10,3,6,6,130
49.439930321937105,10,3,6,6,131
49.439930321937105,10,3,6,6,132
49.439930321937105,10,3,6,6,133
49.439930321937105,10,3,6,6,134
49.439930321937105,10,3,6,6,135
49.439930321937105,10,3,6,6,136
49.45169660914106,10,3,6,6,137
49.399981210028066,10,3,6,6,138
49.443108364475684,10,3,6,6,139
49.45169660914106,10,3,6,6,140
49.442240726691566,10,3,6,6,141
49.439930321937105,10,3,6,6,142
49.439930321937105,10,3,6,6,143
49.439930321937105,10,3,6,6,144
49.44079761860108,10,3,6,6,145
49.443108364475684,10,3,6,6,146
49.43588536946515,10,3,6,6,147
49.439930321937105,10,3,6,6,148
49.439930321937105,10,3,6,6,149
47.226202098566795,10,3,6,7,151
47.18625305221774,10,3,6,7,152
47.18625305221774,10,3,6,7,153
47.18542512463294,10,3,6,7,154
47.189286226384034,10,3,6,7,155
47.226202098566795,10,3,6,7,156
47.18625305221774,10,3,6,7,157
47.226202098566795,10,3,6,7,158
47.18845813913202,10,3,6,7,159
47.226202098566795,10,3,6,7,160
47.189286226384034,10,3,6,7,161
47.18625305221774,10,3,6,7,162
47.18845813913202,10,3,6,7,163
47.18625305221774,10,3,6,7,164
47.18625305221774,10,3,6,7,165
47.226202098566795,10,3,6,7,166
47.22537347003808,10,3,6,7,167
47.23796914202287,10,3,6,7,168
47.22537347003808,10,3,6,7,169
47.229237840693195,10,3,6,7,170
47.20106398666093,10,3,6,7,171
47.229237840693195,10,3,6,7,172
47.190114147706375,10,3,6,7,173
47.189286226384034,10,3,6,7,174
47.22537347003808,10,3,6,7,175
47.226202098566795,10,3,6,7,176
47.189286226384034,10,3,6,7,177
47.18708081389926,10,3,6,7,178
47.198030055458425,10,3,6,7,179
47.18625305221774,10,3,6,7,180
47.226202098566795,10,3,6,7,181
47.226202098566795,10,3,6,7,182
47.18625305221774,10,3,6,7,183
47.18625305221774,10,3,6,7,184
47.18625305221774,10,3,6,7,185
47.18625305221774,10,3,6,7,186
47.189286226384034,10,3,6,7,187
47.229237840693195,10,3,6,7,188
47.18625305221774,10,3,6,7,189
47.18625305221774,10,3,6,7,190
47.226202098566795,10,3,6,7,191
47.226202098566795,10,3,6,7,192
47.226202098566795,10,3,6,7,193
47.198030055458425,10,3,6,7,194
47.227030561051784,10,3,6,7,195
47.19720192123494,10,3,6,7,196
47.18625305221774,10,3,6,7,197
47.19720192123494,10,3,6,7,198
47.198030055458425,10,3,6,7,199
47.189286226384034,10,3,6,7,200
47.18625305221774,10,3,6,7,201
47.18845813913202,10,3,6,7,202
47.18625305221774,10,3,6,7,203
47.18625305221774,10,3,6,7,204
47.198030055458425,10,3,6,7,205
47.18625305221774,10,3,6,7,206
47.18625305221774,10,3,6,7,207
47.18542512463294,10,3,6,7,208
47.198030055458425,10,3,6,7,209
47.226202098566795,10,3,6,7,210
47.18625305221774,10,3,6,7,211
47.18542512463294,10,3,6,7,212
47.189286226384034,10,3,6,7,213
47.18542512463294,10,3,6,7,214
47.18625305221774,10,3,6,7,215
47.198030055458425,10,3,6,7,216
47.18625305221774,10,3,6,7,217
47.18708081389926,10,3,6,7,218
47.18625305221774,10,3,6,7,219
47.18625305221774,10,3,6,7,220
47.189286226384034,10,3,6,7,221
47.18625305221774,10,3,6,7,222
47.226202098566795,10,3,6,7,223
47.18625305221774,10,3,6,7,224
47.189286226384034,10,3,6,7,225
47.24100564054525,10,3,6,7,226
47.18625305221774,10,3,6,7,227
47.18625305221774,10,3,6,7,228
47.19720192123494,10,3,6,7,229
47.18625305221774,10,3,6,7,230
47.18625305221774,10,3,6,7,231
47.18625305221774,10,3,6,7,232
47.18542512463294,10,3,6,7,233
47.22537347003808,10,3,6,7,234
47.18625305221774,10,3,6,7,235
47.18542512463294,10,3,6,7,236
47.189286226384034,10,3,6,7,237
47.226202098566795,10,3,6,7,238
47.22537347003808,10,3,6,7,239
47.189286226384034,10,3,6,7,240
47.18625305221774,10,3,6,7,241
47.18625305221774,10,3,6,7,242
47.226202098566795,10,3,6,7,243
47.18625305221774,10,3,6,7,244
47.226202098566795,10,3,6,7,245
47.189286226384034,10,3,6,7,246
47.18625305221774,10,3,6,7,247
47.18625305221774,10,3,6,7,248
47.18625305221774,10,3,6,7,249
47.226202098566795,10,3,6,8,251
47.18625305221774,10,3,6,8,252
47.189286226384034,10,3,6,8,253
47.18625305221774,10,3,6,8,254
47.189286226384034,10,3,6,8,255
47.18625305221774,10,3,6,8,0
47.189286226384034,10,3,6,8,1
47.189286226384034,10,3,6,8,2
47.22537347003808,10,3,6,8,3
47.189286226384034,10,3,6,8,4
47.18625305221774,10,3,6,8,5
47.190114147706375,10,3,6,8,6
47.189286226384034,10,3,6,8,7
47.189286226384034,10,3,6,8,8
47.18625305221774,10,3,6,8,9
47.189286226384034,10,3,6,8,10
47.18625305221774,10,3,6,8,11
47.189286226384034,10,3,6,8,12
47.18625305221774,10,3,6,8,13
47.18625305221774,10,3,6,8,14
47.18625305221774,10,3,6,8,15
47.189286226384034,10,3,6,8,16
47.18845813913202,10,3,6,8,17
47.189286226384034,10,3,6,8,18
47.18625305221774,10,3,6,8,19
47.189286226384034,10,3,6,8,20
47.18625305221774,10,3,6,8,21
47.18625305221774,10,3,6,8,22
47.18625305221774,10,3,6,8,23
47.189286226384034,10,3,6,8,24
47.189286226384034,10,3,6,8,25
47.18625305221774,10,3,6,8,26
47.189286226384034,10,3,6,8,27
47.18625305221774,10,3,6,8,28
47.189286226384034,10,3,6,8,29
47.18542512463294,10,3,6,8,30
47.18625305221774,10,3,6,8,31
47.189286226384034,10,3,6,8,32
47.18625305221774,10,3,6,8,33
47.189286226384034,10,3,6,8,34
47.18708081389926,10,3,6,8,35
47.18542512463294,10,3,6,8,36
47.226202098566795,10,3,6,8,37
47.18625305221774,10,3,6,8,38
47.189286226384034,10,3,6,8,39
47.18625305221774,10,3,6,8,40
47.18542512463294,10,3,6,8,41
47.18625305221774,10,3,6,8,42
47.18625305221774,10,3,6,8,43
47.189286226384034,10,3,6,8,44
47.18625305221774,10,3,6,8,45
47.18625305221774,10,3,6,8,46
47.18845813913202,10,3,6,8,47
47.189286226384034,10,3,6,8,48
47.18625305221774,10,3,6,8,49
47.189286226384034,10,3,6,8,50
47.18542512463294,10,3,6,8,51
47.18625305221774,10,3,6,8,52
47.18625305221774,10,3,6,8,53
47.18625305221774,10,3,6,8,54
47.18625305221774,10,3,6,8,55
47.18625305221774,10,3,6,8,56
47.18625305221774,10,3,6,8,57
47.18625305221774,10,3,6,8,58
47.18542512463294,10,3,6,8,59
47.19499649972773,10,3,6,8,60
47.18625305221774,10,3,6,8,61
47.18542512463294,10,3,6,8,62
47.226202098566795,10,3,6,8,63
47.18625305221774,10,3,6,8,64
47.18542512463294,10,3,6,8,65
47.18625305221774,10,3,6,8,66
47.189286226384034,10,3,6,8,67
47.189286226384034,10,3,6,8,68
47.189286226384034,10,3,6,8,69
47.19720192123494,10,3,6,8,70
47.226202098566795,10,3,6,8,71
47.18625305221774,10,3,6,8,72
47.198858023737245,10,3,6,8,73
47.22537347003808,10,3,6,8,74
47.18625305221774,10,3,6,8,75
47.18845813913202,10,3,6,8,76
47.18625305221774,10,3,6,8,77
47.18625305221774,10,3,6,8,78
47.189286226384034,10,3,6,8,79
47.18625305221774,10,3,6,8,80
47.226202098566795,10,3,6,8,81
47.189286226384034,10,3,6,8,82
47.18625305221774,10,3,6,8,83
47.189286226384034,10,3,6,8,84
47.18625305221774,10,3,6,8,85
47.18708081389926,10,3,6,8,86
47.18625305221774,10,3,6,8,87
47.18542512463294,10,3,6,8,88
47.22316673213632,10,3,6,8,89
47.18625305221774,10,3,6,8,90
47.226202098566795,10,3,6,8,91
47.198030055458425,10,3,6,8,92
47.189286226384034,10,3,6,8,93
47.226202098566795,10,3,6,8,94
47.198030055458425,10,3,6,8,95
47.18625305221774,10,3,6,8,96
47.18625305221774,10,3,6,8,97
47.190114147706375,10,3,6,8,98
47.189286226384034,10,3,6,8,99
47.18625305221774,10,3,6,8,100
47.226202098566795,10,3,6,8,101
47.189286226384034,10,3,6,8,102
47.18625305221774,10,3,6,8,103
47.189286226384034,10,3,6,8,104
47.189286226384034,10,3,6,8,105
47.229237840693195,10,3,6,8,106
47.222338263369686,10,3,6,8,107
47.189286226384034,10,3,6,8,108
47.18542512463294,10,3,6,8,109
47.226202098566795,10,3,6,8,110
47.19720192123494,10,3,6,8,111
47.18625305221774,10,3,6,8,112
47.189286226384034,10,3,6,8,113
47.189286226384034,10,3,6,8,114
47.189286226384034,10,3,6,8,115
47.18625305221774,10,3,6,8,116
47.18625305221774,10,3,6,8,117
47.226202098566795,10,3,6,8,118
47.18625305221774,10,3,6,8,119
47.226202098566795,10,3,6,8,120
47.18625305221774,10,3,6,8,121
47.19720192123494,10,3,6,8,122
47.18625305221774,10,3,6,8,123
47.18542512463294,10,3,6,8,124
47.18845813913202,10,3,6,8,125
47.20023569273038,10,3,6,8,126
47.18625305221774,10,3,6,8,127
47.23796914202287,10,3,6,8,128
47.190114147706375,10,3,6,8,129
47.18625305221774,10,3,6,8,130
47.18542512463294,10,3,6,8,131
47.18625305221774,10,3,6,8,132
47.18845813913202,10,3,6,8,133
47.189286226384034,10,3,6,8,134
47.22537347003808,10,3,6,8,135
47.18625305221774,10,3,6,8,136
47.18625305221774,10,3,6,8,137
47.189286226384034,10,3,6,8,138
47.18625305221774,10,3,6,8,139
47.18542512463294,10,3,6,8,140
47.226202098566795,10,3,6,8,141
47.18845813913202,10,3,6,8,142
47.18625305221774,10,3,6,8,143
47.229237840693195,10,3,6,8,144
47.18625305221774,10,3,6,8,145
47.189286226384034,10,3,6,8,146
47.189286226384034,10,3,6,8,147
47.189286226384034,10,3,6,8,148
47.18625305221774,10,3,6,8,149
47.189286226384034,10,3,6,8,150
47.18845813913202,10,3,6,8,151
47.198030055458425,10,3,6,8,152
47.229237840693195,10,3,6,8,153
47.18625305221774,10,3,6,8,154
47.189286226384034,10,3,6,8,155
47.18625305221774,10,3,6,8,156
47.18708081389926,10,3,6,8,157
47.18625305221774,10,3,6,8,158
47.18625305221774,10,3,6,8,159
47.198030055458425,10,3,6,8,160
47.18845813913202,10,3,6,8,161
47.189286226384034,10,3,6,8,162
47.189286226384034,10,3,6,8,163
47.226202098566795,10,3,6,8,164
47.226202098566795,10,3,6,8,165
47.189286226384034,10,3,6,8,166
47.198030055458425,10,3,6,8,167
47.18542512463294,10,3,6,8,168
47.18625305221774,10,3,6,8,169
47.189286226384034,10,3,6,8,170
47.18542512463294,10,3,6,8,171
47.18625305221774,10,3,6,8,172
47.18625305221774,10,3,6,8,173
47.20106398666093,10,3,6,8,174
47.23796914202287,10,3,6,8,175
47.22537347003808,10,3,6,8,176
47.229237840693195,10,3,6,8,177
47.229237840693195,10,3,6,8,178
47.19720192123494,10,3,6,8,179
47.18625305221774,10,3,6,8,180
47.189286226384034,10,3,6,8,181
47.18625305221774,10,3,6,8,182
47.18625305221774,10,3,6,8,183
47.18625305221774,10,3,6,8,184
47.226202098566795,10,3,6,8,185
47.226202098566795,10,3,6,8,186
47.189286226384034,10,3,6,8,187
47.198030055458425,10,3,6,8,188
47.18625305221774,10,3,6,8,189
47.229237840693195,10,3,6,8,190
47.18625305221774,10,3,6,8,191
47.229237840693195,10,3,6,8,192
47.198030055458425,10,3,6,8,193
1.5288875678098,10,3,7,1,195
1.545833917625634,10,3,7,1,196
1.51409787818875,10,3,7,1,197
1.545833917625634,10,3,7,1,198
1.492829064312022,10,3,7,1,199
1.5289143940636292,10,3,7,1,200
1.5289143940636292,10,3,7,1,201
1.582968040869368,10,3,7,1,202
1.5089087123662457,10,3,7,1,203
1.5089351880659476,10,3,7,1,204
1.492759305350513,10,3,7,1,205
1.51409787818875,10,3,7,1,206
1.5653422384492006,10,3,7,1,207
1.5289143940636292,10,3,7,1,208
1.545833917625634,10,3,7,1,209
1.5089351880659476,10,3,7,1,210
1.5288875678098,10,3,7,1,211
1.5089087123662457,10,3,7,1,212
1.5288875678098,10,3,7,1,213
1.5271853358091902,10,3,7,1,214
1.5288875678098,10,3,7,1,215
1.5288875678098,10,3,7,1,216
1.5647882330386622,10,3,7,1,217
1.527283501190853,10,3,7,1,218
1.545833917625634,10,3,7,1,219
1.51409787818875,10,3,7,1,220
1.4927331134720228,10,3,7,1,221
1.5289143940636292,10,3,7,1,222
1.5088382043786703,10,3,7,1,223
1.5288875678098,10,3,7,1,224
1.5089087123662457,10,3,7,1,225
1.5458067945027087,10,3,7,1,226
1.5459332851998964,10,3,7,1,227
1.4927331134720228,10,3,7,1,228
1.5140713119047513,10,3,7,1,229
1.5089351880659476,10,3,7,1,230
1.4787534353316167,10,3,7,1,231
1.5089351880659476,10,3,7,1,232
1.5647882330386622,10,3,7,1,233
1.545833917625634,10,3,7,1,234
1.4927331134720228,10,3,7,1,235
1.5459332851998964,10,3,7,1,236
1.4899480427839846,10,3,7,1,237
1.5289143940636292,10,3,7,1,238
1.545833917625634,10,3,7,1,239
1.5288875678098,10,3,7,1,240
1.5273370989279518,10,3,7,1,241
1.5288875678098,10,3,7,1,242
1.5090057029515869,10,3,7,1,243
1.5089351880659476,10,3,7,1,244
1.5457074444553516,10,3,7,1,245
1.5288875678098,10,3,7,1,246
1.478848490913025,10,3,7,1,247
1.5272121321952195,10,3,7,1,248
1.5458067945027087,10,3,7,1,249
1.5653422384492006,10,3,7,1,250
1.5088382043786703,10,3,7,1,251
1.5288875678098,10,3,7,1,252
1.5271853358091902,10,3,7,1,253
1.5289143940636292,10,3,7,1,254
1.545833917625634,10,3,7,1,255
1.5457074444553516,10,3,7,1,0
1.5287893051725763,10,3,7,1,1
1.5089087123662457,10,3,7,1,2
1.5289143940636292,10,3,7,1,3
1.478727489199406,10,3,7,1,4
1.492759305350513,10,3,7,1,5
1.5290126740359216,10,3,7,1,6
1.5289143940636292,10,3,7,1,7
1.5457345623488565,10,3,7,1,8
1.5289143940636292,10,3,7,1,9
1.5458067945027087,10,3,7,1,10
1.5458067945027087,10,3,7,1,11
1.5289143940636292,10,3,7,1,12
1.545833917625634,10,3,7,1,13
1.5288875678098,10,3,7,1,14
1.492759305350513,10,3,7,1,15
1.5089087123662457,10,3,7,1,16
1.5273103027446102,10,3,7,1,17
1.5459332851998964,10,3,7,1,18
1.5289143940636292,10,3,7,1,19
1.5458067945027087,10,3,7,1,20
1.5089087123662457,10,3,7,1,21
1.5090321837571714,10,3,7,1,22
1.545833917625634,10,3,7,1,23
1.545833917625634,10,3,7,1,24
1.5289143940636292,10,3,7,1,25
1.5289143940636292,10,3,7,1,26
1.489852273759405,10,3,7,1,27
1.5287893051725763,10,3,7,1,28
1.489852273759405,10,3,7,1,29
1.5271853358091902,10,3,7,1,30
1.545833917625634,10,3,7,1,31
1.5089087123662457,10,3,7,1,32
1.5088117337835636,10,3,7,1,33
1.5497552275763045,10,3,7,1,34
1.5090321837571714,10,3,7,1,35
1.5288161262542226,10,3,7,1,36
1.5089351880659476,10,3,7,1,37
1.545833917625634,10,3,7,2,39
1.5088117337835636,10,3,7,2,40
1.5288875678098,10,3,7,2,41
1.5288875678098,10,3,7,2,42
1.5289143940636292,10,3,7,2,43
1.5088117337835636,10,3,7,2,44
1.4927331134720228,10,3,7,2,45
1.5474885430992624,10,3,7,2,46
1.5289143940636292,10,3,7,2,47
1.5647607773442875,10,3,7,2,48
1.545833917625634,10,3,7,2,49
1.5647607773442875,10,3,7,2,50
1.5289143940636292,10,3,7,2,51
1.5089351880659476,10,3,7,2,52
1.545833917625634,10,3,7,2,53
1.5288875678098,10,3,7,2,54
1.5288875678098,10,3,7,2,55
1.5089087123662457,10,3,7,2,56
1.5290126740359216,10,3,7,2,57
1.5458067945027087,10,3,7,2,58
1.5289143940636292,10,3,7,2,59
1.5458067945027087,10,3,7,2,60
1.545833917625634,10,3,7,2,61
1.5288875678098,10,3,7,2,62
1.5289143940636292,10,3,7,2,63
1.5287893051725763,10,3,7,2,64
1.545833917625634,10,3,7,2,65
1.5290126740359216,10,3,7,2,66
1.5090057029515869,10,3,7,2,67
1.5272121321952195,10,3,7,2,68
1.5089351880659476,10,3,7,2,69
1.5089351880659476,10,3,7,2,70
1.5289143940636292,10,3,7,2,71
1.5289143940636292,10,3,7,2,72
1.545833917625634,10,3,7,2,73
1.492759305350513,10,3,7,2,74
1.5288161262542226,10,3,7,2,75
1.5288161262542226,10,3,7,2,76
1.5458067945027087,10,3,7,2,77
1.5272121321952195,10,3,7,2,78
1.5089351880659476,10,3,7,2,79
1.5089351880659476,10,3,7,2,80
1.5089351880659476,10,3,7,2,81
1.4927331134720228,10,3,7,2,82
1.489852273759405,10,3,7,2,83
1.5090321837571714,10,3,7,2,84
1.492759305350513,10,3,7,2,85
1.5090321837571714,10,3,7,2,86
1.5288875678098,10,3,7,2,87
1.545833917625634,10,3,7,2,88
1.492759305350513,10,3,7,2,89
1.5288875678098,10,3,7,2,90
1.5289143940636292,10,3,7,2,91
1.492759305350513,10,3,7,2,92
1.545833917625634,10,3,7,2,93
1.5272121321952195,10,3,7,2,94
1.5089351880659476,10,3,7,2,95
1.5089087123662457,10,3,7,2,96
1.5653422384492006,10,3,7,2,97
1.5457074444553516,10,3,7,2,98
1.5088382043786703,10,3,7,2,99
1.5140713119047513,10,3,7,2,100
1.4927331134720228,10,3,7,2,101
1.5290126740359216,10,3,7,2,102
1.5289143940636292,10,3,7,2,103
1.545833917625634,10,3,7,2,104
1.545833917625634,10,3,7,2,105
1.5290126740359216,10,3,7,2,106
1.545833917625634,10,3,7,2,107
1.5653147730342751,10,3,7,2,108
1.5288161262542226,10,3,7,2,109
1.5458067945027087,10,3,7,2,110
1.5288875678098,10,3,7,2,111
1.545833917625634,10,3,7,2,112
1.5089351880659476,10,3,7,2,113
1.5288875678098,10,3,7,2,114
1.5457345623488565,10,3,7,2,115
1.545833917625634,10,3,7,2,116
1.5289143940636292,10,3,7,2,117
1.5647607773442875,10,3,7,2,118
1.5653422384492006,10,3,7,2,119
1.5288875678098,10,3,7,2,120
1.5272121321952195,10,3,7,2,121
1.5272121321952195,10,3,7,2,122
1.5271853358091902,10,3,7,2,123
1.5140713119047513,10,3,7,2,124
1.545833917625634,10,3,7,2,125
1.545833917625634,10,3,7,2,126
1.5458067945027087,10,3,7,2,127
1.5089351880659476,10,3,7,2,128
1.5141952057422703,10,3,7,2,129
1.5457345623488565,10,3,7,2,130
1.5653147730342751,10,3,7,2,131
1.5089351880659476,10,3,7,2,132
1.5459061568462318,10,3,7,2,133
1.5458067945027087,10,3,7,2,134
1.5289143940636292,10,3,7,2,135
1.5458067945027087,10,3,7,2,136
1.5140005626802464,10,3,7,2,137
1.5271853358091902,10,3,7,4,139
1.5647607773442875,10,3,7,4,140
1.5090321837571714,10,3,7,4,141
1.5476151714110293,10,3,7,4,142
1.4927331134720228,10,3,7,4,143
1.5474162323609946,10,3,7,4,144
1.5272121321952195,10,3,7,4,145
1.5271853358091902,10,3,7,4,146
1.5089087123662457,10,3,7,4,147
1.4722637179891638,10,3,7,4,148
1.5089351880659476,10,3,7,4,149
1.4927331134720228,10,3,7,4,150
1.5271853358091902,10,3,7,4,151
1.489852273759405,10,3,7,4,152
1.5272121321952195,10,3,7,4,153
1.5271853358091902,10,3,7,4,154
1.5271853358091902,10,3,7,4,155
1.5474885430992624,10,3,7,4,156
1.5089087123662457,10,3,7,4,157
1.4722378800963976,10,3,7,4,158
1.5272121321952195,10,3,7,4,159
1.478727489199406,10,3,7,4,160
1.5475156957305802,10,3,7,4,161
1.5272121321952195,10,3,7,4,162
1.5272121321952195,10,3,7,4,163
1.5089087123662457,10,3,7,4,164
1.5458067945027087,10,3,7,4,165
1.5271139737951727,10,3,7,4,166
1.545833917625634,10,3,7,4,167
1.5289143940636292,10,3,7,4,168
1.5272121321952195,10,3,7,4,169
1.509509692251266,10,3,7,4,170
1.5093861909655366,10,3,7,4,171
1.5272121321952195,10,3,7,4,172
1.4899480427839846,10,3,7,4,173
1.5089351880659476,10,3,7,4,174
1.5272121321952195,10,3,7,4,175
1.5089087123662457,10,3,7,4,176
1.527283501190853,10,3,7,4,177
1.5272121321952195,10,3,7,4,178
1.5272121321952195,10,3,7,4,179
1.5089087123662457,10,3,7,4,180
1.5458067945027087,10,3,7,4,181
1.5272121321952195,10,3,7,4,182
1.5272121321952195,10,3,7,4,183
1.5272121321952195,10,3,7,4,184
1.5090057029515869,10,3,7,4,185
1.5459061568462318,10,3,7,4,186
1.5089351880659476,10,3,7,4,187
1.5458067945027087,10,3,7,4,188
1.545833917625634,10,3,7,4,189
1.4722895507063847,10,3,7,4,190
1.5476151714110293,10,3,7,4,191
1.5272121321952195,10,3,7,4,192
1.5474885430992624,10,3,7,4,193
1.5273103027446102,10,3,7,4,194
1.5653422384492006,10,3,7,4,195
1.5271853358091902,10,3,7,4,196
1.5647882330386622,10,3,7,4,197
1.5090321837571714,10,3,7,4,198
1.5272121321952195,10,3,7,4,199
1.5090321837571714,10,3,7,4,200
1.5271139737951727,10,3,7,4,201
1.509509692251266,10,3,7,4,202
1.5272121321952195,10,3,7,4,203
1.5089087123662457,10,3,7,4,204
1.5272121321952195,10,3,7,4,205
1.5089351880659476,10,3,7,4,206
1.5088117337835636,10,3,7,4,207
1.5089351880659476,10,3,7,4,208
1.492759305350513,10,3,7,4,209
1.5458067945027087,10,3,7,4,210
1.5289858426086047,10,3,7,4,211
1.5475156957305802,10,3,7,4,212
1.5458067945027087,10,3,7,4,213
1.5089351880659476,10,3,7,4,214
1.5089351880659476,10,3,7,4,215
1.4787534353316167,10,3,7,4,216
1.5271139737951727,10,3,7,4,217
1.5272121321952195,10,3,7,4,218
1.5647882330386622,10,3,7,4,219
1.5273103027446102,10,3,7,4,220
1.5089087123662457,10,3,7,4,221
1.5271853358091902,10,3,7,4,222
1.5089087123662457,10,3,7,4,223
1.4927331134720228,10,3,7,4,224
1.5089351880659476,10,3,7,4,225
1.5272121321952195,10,3,7,4,226
1.5089351880659476,10,3,7,4,227
1.5089087123662457,10,3,7,4,228
1.545833917625634,10,3,7,4,229
1.5272121321952195,10,3,7,4,230
1.5458067945027087,10,3,7,4,231
1.5271139737951727,10,3,7,4,232
1.5094832064713433,10,3,7,4,233
1.5271853358091902,10,3,7,4,234
1.5089351880659476,10,3,7,4,235
1.5271853358091902,10,3,7,4,236
1.5089616584603482,10,3,7,4,237
1.5474885430992624,10,3,7,5,239
1.545833917625634,10,3,7,5,240
1.5271139737951727,10,3,7,5,241
1.5458067945027087,10,3,7,5,242
1.5272121321952195,10,3,7,5,243
1.489852273759405,10,3,7,5,244
1.509509692251266,10,3,7,5,245
1.5089616584603482,10,3,7,5,246
1.5271853358091902,10,3,7,5,247
1.5272121321952195,10,3,7,5,248
1.5272121321952195,10,3,7,5,249
1.5158148674512864,10,3,7,5,250
1.5272121321952195,10,3,7,5,251
1.5272121321952195,10,3,7,5,252
1.5476151714110293,10,3,7,5,253
1.5272121321952195,10,3,7,5,254
1.5273103027446102,10,3,7,5,255
1.5272121321952195,10,3,7,5,0
1.4722895507063847,10,3,7,5,1
1.5289143940636292,10,3,7,5,2
1.5476151714110293,10,3,7,5,3
1.5090057029515869,10,3,7,5,4
1.545833917625634,10,3,7,5,5
1.5475156957305802,10,3,7,5,6
1.4722895507063847,10,3,7,5,7
1.527283501190853,10,3,7,5,8
1.4898261328875426,10,3,7,5,9
1.5088117337835636,10,3,7,5,10
1.5272121321952195,10,3,7,5,11
1.527283501190853,10,3,7,5,12
1.5272121321952195,10,3,7,5,13
1.489852273759405,10,3,7,5,14
1.4722637179891638,10,3,7,5,15
1.489852273759405,10,3,7,5,16
1.5089351880659476,10,3,7,5,17
1.5647882330386622,10,3,7,5,18
1.5272121321952195,10,3,7,5,19
1.472358353084457,10,3,7,5,20
1.53118113273464,10,3,7,5,21
1.5089351880659476,10,3,7,5,22
1.5273103027446102,10,3,7,5,23
1.5090057029515869,10,3,7,5,24
1.5289858426086047,10,3,7,5,25
1.489852273759405,10,3,7,5,26
1.4926371745060132,10,3,7,5,27
1.5271853358091902,10,3,7,5,28
1.5089351880659476,10,3,7,5,29
1.509509692251266,10,3,7,5,30
1.5271853358091902,10,3,7,5,31
1.5272121321952195,10,3,7,5,32
1.4899480427839846,10,3,7,5,33
1.5089351880659476,10,3,7,5,34
1.5089351880659476,10,3,7,5,35
1.5271853358091902,10,3,7,5,36
1.5096067248721279,10,3,7,5,37
1.5647882330386622,10,3,7,5,38
1.489852273759405,10,3,7,5,39
1.5271853358091902,10,3,7,5,40
1.4899480427839846,10,3,7,5,41
1.5089351880659476,10,3,7,5,42
1.5090321837571714,10,3,7,5,43
1.4899480427839846,10,3,7,5,44
1.5271853358091902,10,3,7,5,45
1.5089351880659476,10,3,7,5,46
1.5457345623488565,10,3,7,5,47
1.5457345623488565,10,3,7,5,48
1.5089087123662457,10,3,7,5,49
1.5089087123662457,10,3,7,5,50
1.5088117337835636,10,3,7,5,51
1.5271853358091902,10,3,7,5,52
1.4722895507063847,10,3,7,5,53
1.5271853358091902,10,3,7,5,54
1.5270871825755674,10,3,7,5,55
1.545833917625634,10,3,7,5,56
1.5094832064713433,10,3,7,5,57
1.545833917625634,10,3,7,5,58
1.5272121321952195,10,3,7,5,59
1.5271853358091902,10,3,7,5,60
1.5288875678098,10,3,7,5,61
1.5475156957305802,10,3,7,5,62
1.5271139737951727,10,3,7,5,63
1.4898261328875426,10,3,7,5,64
1.5272121321952195,10,3,7,5,65
1.5272121321952195,10,3,7,5,66
1.5457074444553516,10,3,7,5,67
1.5089351880659476,10,3,7,5,68
1.4898261328875426,10,3,7,5,69
1.5089087123662457,10,3,7,5,70
1.489852273759405,10,3,7,5,71
1.5272121321952195,10,3,7,5,72
1.545833917625634,10,3,7,5,73
1.5271853358091902,10,3,7,5,74
1.5089351880659476,10,3,7,5,75
1.4898261328875426,10,3,7,5,76
1.5089351880659476,10,3,7,5,77
1.509509692251266,10,3,7,5,78
1.5089351880659476,10,3,7,5,79
1.509509692251266,10,3,7,5,80
1.509509692251266,10,3,7,5,81
47.18625305221774,10,3,7,6,83
47.18625305221774,10,3,7,6,84
47.18625305221774,10,3,7,6,85
47.18625305221774,10,3,7,6,86
47.18625305221774,10,3,7,6,87
47.18625305221774,10,3,7,6,88
47.18625305221774,10,3,7,6,89
47.226202098566795,10,3,7,6,90
47.22537347003808,10,3,7,6,91
47.226202098566795,10,3,7,6,92
47.22537347003808,10,3,7,6,93
47.18625305221774,10,3,7,6,94
47.23714030703021,10,3,7,6,95
47.22537347003808,10,3,7,6,96
47.22537347003808,10,3,7,6,97
47.198030055458425,10,3,7,6,98
47.22537347003808,10,3,7,6,99
47.18625305221774,10,3,7,6,100
47.22537347003808,10,3,7,6,101
47.18625305221774,10,3,7,6,102
47.229237840693195,10,3,7,6,103
47.226202098566795,10,3,7,6,104
47.198030055458425,10,3,7,6,105
47.226202098566795,10,3,7,6,106
47.226202098566795,10,3,7,6,107
47.226202098566795,10,3,7,6,108
47.18625305221774,10,3,7,6,109
47.23796914202287,10,3,7,6,110
47.226202098566795,10,3,7,6,111
47.226202098566795,10,3,7,6,112
47.226202098566795,10,3,7,6,113
47.18625305221774,10,3,7,6,114
47.23796914202287,10,3,7,6,115
47.189286226384034,10,3,7,6,116
47.22316673213632,10,3,7,6,117
47.18625305221774,10,3,7,6,118
47.19720192123494,10,3,7,6,119
47.18625305221774,10,3,7,6,120
47.198030055458425,10,3,7,6,121
47.226202098566795,10,3,7,6,122
47.226202098566795,10,3,7,6,123
47.226202098566795,10,3,7,6,124
47.226202098566795,10,3,7,6,125
47.226202098566795,10,3,7,6,126
47.226202098566795,10,3,7,6,127
47.226202098566795,10,3,7,6,128
47.227030561051784,10,3,7,6,129
47.18625305221774,10,3,7,6,130
47.226202098566795,10,3,7,6,131
47.226202098566795,10,3,7,6,132
47.226202098566795,10,3,7,6,133
47.18625305221774,10,3,7,6,134
47.18542512463294,10,3,7,6,135
47.18625305221774,10,3,7,6,136
47.18542512463294,10,3,7,6,137
47.18625305221774,10,3,7,6,138
47.226202098566795,10,3,7,6,139
47.18542512463294,10,3,7,6,140
47.18625305221774,10,3,7,6,141
47.18625305221774,10,3,7,6,142
47.18625305221774,10,3,7,6,143
47.198030055458425,10,3,7,6,144
47.18625305221774,10,3,7,6,145
47.18625305221774,10,3,7,6,146
47.18625305221774,10,3,7,6,147
47.18322025342956,10,3,7,6,148
47.226202098566795,10,3,7,6,149
47.18542512463294,10,3,7,6,150
47.22537347003808,10,3,7,6,151
47.226202098566795,10,3,7,6,152
47.226202098566795,10,3,7,6,153
47.18625305221774,10,3,7,6,154
47.226202098566795,10,3,7,6,155
47.18625305221774,10,3,7,6,156
47.18542512463294,10,3,7,6,157
47.198030055458425,10,3,7,6,158
47.226202098566795,10,3,7,6,159
47.234104344099244,10,3,7,6,160
47.18625305221774,10,3,7,6,161
47.18625305221774,10,3,7,6,162
47.18542512463294,10,3,7,6,163
47.18625305221774,10,3,7,6,164
47.18625305221774,10,3,7,6,165
47.198030055458425,10,3,7,6,166
47.18239248547171,10,3,7,6,167
47.18625305221774,10,3,7,6,168
47.18239248547171,10,3,7,6,169
47.226202098566795,10,3,7,6,170
47.18625305221774,10,3,7,6,171
47.226202098566795,10,3,7,6,172
47.18625305221774,10,3,7,6,173
47.22537347003808,10,3,7,6,174
47.18625305221774,10,3,7,6,175
47.18542512463294,10,3,7,6,176
47.18625305221774,10,3,7,6,177
47.189286226384034,10,3,7,6,178
47.18625305221774,10,3,7,6,179
47.18625305221774,10,3,7,6,180
47.18542512463294,10,3,7,6,181
49.36003489750274,10,3,7,7,183
49.35916882885278,10,3,7,7,184
49.36003489750274,10,3,7,7,185
49.36320780429262,10,3,7,7,186
49.36003489750274,10,3,7,7,187
49.35916882885278,10,3,7,7,188
49.35916882885278,10,3,7,7,189
49.36003489750274,10,3,7,7,190
49.35686238338395,10,3,7,7,191
49.36003489750274,10,3,7,7,192
49.36003489750274,10,3,7,7,193
49.399981210028066,10,3,7,7,194
49.36003489750274,10,3,7,7,195
49.35916882885278,10,3,7,7,196
49.36003489750274,10,3,7,7,197
49.36003489750274,10,3,7,7,198
49.36003489750274,10,3,7,7,199
49.35686238338395,10,3,7,7,200
49.36003489750274,10,3,7,7,201
49.39911444048215,10,3,7,7,202
49.36003489750274,10,3,7,7,203
49.36003489750274,10,3,7,7,204
49.39680612844268,10,3,7,7,205
49.36003489750274,10,3,7,7,206
49.36003489750274,10,3,7,7,207
49.36003489750274,10,3,7,7,208
49.399981210028066,10,3,7,7,209
49.35916882885278,10,3,7,7,210
49.36003489750274,10,3,7,7,211
49.36003489750274,10,3,7,7,212
49.35686238338395,10,3,7,7,213
49.36320780429262,10,3,7,7,214
49.36003489750274,10,3,7,7,215
49.36003489750274,10,3,7,7,216
49.355996481714634,10,3,7,7,217
49.36003489750274,10,3,7,7,218
49.39911444048215,10,3,7,7,219
49.39593952601254,10,3,7,7,220
49.35686238338395,10,3,7,7,221
49.36003489750274,10,3,7,7,222
49.35916882885278,10,3,7,7,223
49.399981210028066,10,3,7,7,224
49.36003489750274,10,3,7,7,225
49.355996481714634,10,3,7,7,226
49.36003489750274,10,3,7,7,227
49.36320780429262,10,3,7,7,228
49.35916882885278,10,3,7,7,229
49.39680612844268,10,3,7,7,230
49.399981210028066,10,3,7,7,231
49.35686238338395,10,3,7,7,232
49.35686238338395,10,3,7,7,233
49.35916882885278,10,3,7,7,234
49.36003489750274,10,3,7,7,235
49.36003489750274,10,3,7,7,236
49.36003489750274,10,3,7,7,237
49.39911444048215,10,3,7,7,238
49.35916882885278,10,3,7,7,239
49.39593952601254,10,3,7,7,240
49.355996481714634,10,3,7,7,241
