BIOZ1_TOMO,EXC_FREQ_KHZ,GND_OUTPUT,EXC_OUTPUT,SENSE_OUTPUT,PACKET_NUMBER
60.45288812683781,10,1,5,8,138
60.45288812683781,10,1,5,8,139
60.439771949717496,10,1,5,8,140
60.47175292951927,10,1,5,8,141
60.48485878054023,10,1,5,8,142
60.45288812683781,10,1,5,8,143
60.439771949717496,10,1,5,8,144
60.45288812683781,10,1,5,8,145
60.47388425319832,10,1,5,8,146
60.45288812683781,10,1,5,8,147
60.47957649741016,10,1,5,8,148
60.48485878054023,10,1,5,8,149
60.47175292951927,10,1,5,8,150
60.45288812683781,10,1,5,8,151
60.45288812683781,10,1,5,8,152
60.48485878054023,10,1,5,8,153
60.45288812683781,10,1,5,8,154
60.49268404400813,10,1,5,8,155
60.48485878054023,10,1,5,8,156
60.45288812683781,10,1,5,8,157
60.49268404400813,10,1,5,8,158
60.439771949717496,10,1,5,8,159
60.48485878054023,10,1,5,8,160
60.439771949717496,10,1,5,8,161
60.45288812683781,10,1,5,8,162
60.49268404400813,10,1,5,8,163
60.439771949717496,10,1,5,8,164
60.49268404400813,10,1,5,8,165
60.48485878054023,10,1,5,8,166
60.44506801132359,10,1,5,8,167
60.45288812683781,10,1,5,8,168
60.44506801132359,10,1,5,8,169
60.45288812683781,10,1,5,8,170
60.45288812683781,10,1,5,8,171
60.43408345184814,10,1,5,8,172
60.49268404400813,10,1,5,8,173
60.44506801132359,10,1,5,8,174
60.45288812683781,10,1,5,8,175
60.47175292951927,10,1,5,8,176
60.44506801132359,10,1,5,8,177
60.44506801132359,10,1,5,8,178
60.43408345184814,10,1,5,8,179
60.43195353089675,10,1,5,8,180
60.47957649741016,10,1,5,8,181
60.45288812683781,10,1,5,8,182
60.44506801132359,10,1,5,8,183
60.439771949717496,10,1,5,8,184
60.45288812683781,10,1,5,8,185
60.45288812683781,10,1,5,8,186
60.48485878054023,10,1,5,8,187
60.44506801132359,10,1,5,8,188
60.47175292951927,10,1,5,8,189
60.45288812683781,10,1,5,8,190
60.439771949717496,10,1,5,8,191
60.43195353089675,10,1,5,8,192
60.44506801132359,10,1,5,8,193
60.439771949717496,10,1,5,8,194
60.441902697484245,10,1,5,8,195
60.44506801132359,10,1,5,8,196
60.44506801132359,10,1,5,8,197
60.45288812683781,10,1,5,8,198
60.439771949717496,10,1,5,8,199
60.47175292951927,10,1,5,8,200
60.48485878054023,10,1,5,8,201
60.47957649741016,10,1,5,8,202
60.44506801132359,10,1,5,8,203
60.439771949717496,10,1,5,8,204
60.45288812683781,10,1,5,8,205
60.439771949717496,10,1,5,8,206
60.45288812683781,10,1,5,8,207
60.45288812683781,10,1,5,8,208
60.45288812683781,10,1,5,8,209
60.43408345184814,10,1,5,8,210
60.45288812683781,10,1,5,8,211
60.43195353089675,10,1,5,8,212
60.47957649741016,10,1,5,8,213
60.49268404400813,10,1,5,8,214
60.48485878054023,10,1,5,8,215
60.44506801132359,10,1,5,8,216
60.45288812683781,10,1,5,8,217
60.48485878054023,10,1,5,8,218
60.45288812683781,10,1,5,8,219
60.45288812683781,10,1,5,8,220
60.45288812683781,10,1,5,8,221
60.45288812683781,10,1,5,8,222
60.45288812683781,10,1,5,8,223
60.439771949717496,10,1,5,8,224
60.45288812683781,10,1,5,8,225
60.49268404400813,10,1,5,8,226
60.45288812683781,10,1,5,8,227
60.47175292951927,10,1,5,8,228
60.45288812683781,10,1,5,8,229
60.49268404400813,10,1,5,8,230
60.48485878054023,10,1,5,8,231
60.47957649741016,10,1,5,8,232
60.45288812683781,10,1,5,8,233
60.45288812683781,10,1,5,8,234
60.45288812683781,10,1,5,8,235
60.44506801132359,10,1,5,8,236
60.44506801132359,10,1,5,8,237
60.49268404400813,10,1,5,8,238
60.43195353089675,10,1,5,8,239
60.49268404400813,10,1,5,8,240
60.49268404400813,10,1,5,8,241
60.439771949717496,10,1,5,8,242
60.45288812683781,10,1,5,8,243
60.45288812683781,10,1,5,8,244
60.45288812683781,10,1,5,8,245
60.48485878054023,10,1,5,8,246
60.45288812683781,10,1,5,8,247
60.48485878054023,10,1,5,8,248
60.45288812683781,10,1,5,8,249
60.47175292951927,10,1,5,8,250
60.48485878054023,10,1,5,8,251
60.441902697484245,10,1,5,8,252
60.44506801132359,10,1,5,8,253
60.47957649741016,10,1,5,8,254
60.45288812683781,10,1,5,8,255
60.48485878054023,10,1,5,8,0
60.48485878054023,10,1,5,8,1
60.45288812683781,10,1,5,8,2
60.45288812683781,10,1,5,8,3
60.45288812683781,10,1,5,8,4
60.49268404400813,10,1,5,8,5
60.48485878054023,10,1,5,8,6
60.45288812683781,10,1,5,8,7
60.44506801132359,10,1,5,8,8
60.48485878054023,10,1,5,8,9
60.45288812683781,10,1,5,8,10
60.48485878054023,10,1,5,8,11
60.45288812683781,10,1,5,8,12
60.45288812683781,10,1,5,8,13
60.4817086484491,10,1,5,8,14
60.49268404400813,10,1,5,8,15
60.49268404400813,10,1,5,8,16
60.45288812683781,10,1,5,8,17
60.45288812683781,10,1,5,8,18
60.49268404400813,10,1,5,8,19
60.455019337003144,10,1,5,8,20
60.439771949717496,10,1,5,8,21
60.48485878054023,10,1,5,8,22
60.48485878054023,10,1,5,8,23
60.49268404400813,10,1,5,8,24
60.49268404400813,10,1,5,8,25
60.45288812683781,10,1,5,8,26
60.48485878054023,10,1,5,8,27
60.49268404400813,10,1,5,8,28
60.45288812683781,10,1,5,8,29
60.45288812683781,10,1,5,8,30
60.45288812683781,10,1,5,8,31
60.49268404400813,10,1,5,8,32
60.49268404400813,10,1,5,8,33
60.45288812683781,10,1,5,8,34
60.486990566134295,10,1,5,8,35
60.48485878054023,10,1,5,8,36
60.49268404400813,10,1,5,8,37
60.45288812683781,10,1,5,8,38
60.49268404400813,10,1,5,8,39
60.48485878054023,10,1,5,8,40
60.49268404400813,10,1,5,8,41
60.49268404400813,10,1,5,8,42
60.44506801132359,10,1,5,8,43
60.45288812683781,10,1,5,8,44
60.45288812683781,10,1,5,8,45
60.4948166571414,10,1,5,8,46
60.49268404400813,10,1,5,8,47
60.49268404400813,10,1,5,8,48
60.49268404400813,10,1,5,8,49
60.49268404400813,10,1,5,8,50
60.49268404400813,10,1,5,8,51
48.72854616722174,10,1,6,2,53
48.75482659725852,10,1,6,2,54
48.71511207940374,10,1,6,2,55
48.71511207940374,10,1,6,2,56
48.71511207940374,10,1,6,2,57
48.71969963384558,10,1,6,2,58
48.721417779911576,10,1,6,2,59
48.73313498676606,10,1,6,2,60
48.71969963384558,10,1,6,2,61
48.721417779911576,10,1,6,2,62
48.753107718030556,10,1,6,2,63
48.71511207940374,10,1,6,2,64
48.71339460033376,10,1,6,2,65
48.71511207940374,10,1,6,2,66
48.74143580301541,10,1,6,2,67
48.721417779911576,10,1,6,2,68
48.71969963384558,10,1,6,2,69
48.71969963384558,10,1,6,2,70
48.71511207940374,10,1,6,2,71
48.70801433122946,10,1,6,2,72
48.75941789165917,10,1,6,2,73
48.70629665783202,10,1,6,2,74
48.75941789165917,10,1,6,2,75
48.74143580301541,10,1,6,2,76
48.71969963384558,10,1,6,2,77
48.721417779911576,10,1,6,2,78
48.7477449108749,10,1,6,2,79
48.70801433122946,10,1,6,2,80
48.7477449108749,10,1,6,2,81
48.71969963384558,10,1,6,2,82
48.721417779911576,10,1,6,2,83
48.70629665783202,10,1,6,2,84
48.70629665783202,10,1,6,2,85
48.71969963384558,10,1,6,2,86
48.75482659725852,10,1,6,2,87
48.70629665783202,10,1,6,2,88
48.761137438426914,10,1,6,2,89
48.70801433122946,10,1,6,2,90
48.70801433122946,10,1,6,2,91
48.75482659725852,10,1,6,2,92
48.75941789165917,10,1,6,2,93
48.71969963384558,10,1,6,2,94
48.71969963384558,10,1,6,2,95
48.71969963384558,10,1,6,2,96
48.721417779911576,10,1,6,2,97
48.70629665783202,10,1,6,2,98
48.721417779911576,10,1,6,2,99
48.75941789165917,10,1,6,2,100
48.761137438426914,10,1,6,2,101
48.7477449108749,10,1,6,2,102
48.71969963384558,10,1,6,2,103
48.71969963384558,10,1,6,2,104
48.70629665783202,10,1,6,2,105
48.75941789165917,10,1,6,2,106
48.70801433122946,10,1,6,2,107
48.70801433122946,10,1,6,2,108
48.71969963384558,10,1,6,2,109
48.70629665783202,10,1,6,2,110
48.74602583639059,10,1,6,2,111
48.71969963384558,10,1,6,2,112
48.761137438426914,10,1,6,2,113
48.761137438426914,10,1,6,2,114
48.761137438426914,10,1,6,2,115
48.71339460033376,10,1,6,2,116
48.71339460033376,10,1,6,2,117
48.75482659725852,10,1,6,2,118
48.74602583639059,10,1,6,2,119
48.74143580301541,10,1,6,2,120
48.71969963384558,10,1,6,2,121
48.75941789165917,10,1,6,2,122
48.71969963384558,10,1,6,2,123
48.74143580301541,10,1,6,2,124
48.71969963384558,10,1,6,2,125
48.70801433122946,10,1,6,2,126
48.75941789165917,10,1,6,2,127
48.761137438426914,10,1,6,2,128
48.721417779911576,10,1,6,2,129
48.721417779911576,10,1,6,2,130
48.761137438426914,10,1,6,2,131
48.74143580301541,10,1,6,2,132
48.761137438426914,10,1,6,2,133
48.71969963384558,10,1,6,2,134
48.75941789165917,10,1,6,2,135
48.71969963384558,10,1,6,2,136
48.721417779911576,10,1,6,2,137
48.75482659725852,10,1,6,2,138
48.721417779911576,10,1,6,2,139
48.721417779911576,10,1,6,2,140
48.75482659725852,10,1,6,2,141
48.71969963384558,10,1,6,2,142
48.71969963384558,10,1,6,2,143
48.761137438426914,10,1,6,2,144
48.721417779911576,10,1,6,2,145
48.721417779911576,10,1,6,2,146
48.71969963384558,10,1,6,2,147
48.71969963384558,10,1,6,2,148
48.75941789165917,10,1,6,2,149
48.761137438426914,10,1,6,2,150
48.71969963384558,10,1,6,2,151
55.393641570973536,10,1,6,3,153
55.44059317377562,10,1,6,3,154
55.4008112369209,10,1,6,3,155
55.4008112369209,10,1,6,3,156
55.4008112369209,10,1,6,3,157
55.38955042136698,10,1,6,3,158
55.38759712561964,10,1,6,3,159
55.4008112369209,10,1,6,3,160
55.40276499867632,10,1,6,3,161
55.4008112369209,10,1,6,3,162
55.38955042136698,10,1,6,3,163
55.38955042136698,10,1,6,3,164
55.38955042136698,10,1,6,3,165
55.4008112369209,10,1,6,3,166
55.4008112369209,10,1,6,3,167
55.40276499867632,10,1,6,3,168
55.40276499867632,10,1,6,3,169
55.4008112369209,10,1,6,3,170
55.40276499867632,10,1,6,3,171
55.38955042136698,10,1,6,3,172
55.4008112369209,10,1,6,3,173
55.40276499867632,10,1,6,3,174
55.393641570973536,10,1,6,3,175
55.4008112369209,10,1,6,3,176
55.393641570973536,10,1,6,3,177
55.38955042136698,10,1,6,3,178
55.4008112369209,10,1,6,3,179
55.44059317377562,10,1,6,3,180
55.4008112369209,10,1,6,3,181
55.4008112369209,10,1,6,3,182
55.38759712561964,10,1,6,3,183
55.4008112369209,10,1,6,3,184
55.4008112369209,10,1,6,3,185
55.4008112369209,10,1,6,3,186
55.4008112369209,10,1,6,3,187
55.4008112369209,10,1,6,3,188
55.4293432456774,10,1,6,3,189
55.4008112369209,10,1,6,3,190
55.42738854664816,10,1,6,3,191
55.38955042136698,10,1,6,3,192
55.44254833847848,10,1,6,3,193
55.40276499867632,10,1,6,3,194
55.4008112369209,10,1,6,3,195
55.38955042136698,10,1,6,3,196
55.38955042136698,10,1,6,3,197
55.39559457426531,10,1,6,3,198
55.393641570973536,10,1,6,3,199
55.40276499867632,10,1,6,3,200
55.4008112369209,10,1,6,3,201
55.38759712561964,10,1,6,3,202
55.40276499867632,10,1,6,3,203
55.4008112369209,10,1,6,3,204
55.40276499867632,10,1,6,3,205
55.44254833847848,10,1,6,3,206
55.40276499867632,10,1,6,3,207
55.4008112369209,10,1,6,3,208
55.44254833847848,10,1,6,3,209
55.38042916976932,10,1,6,3,210
55.40276499867632,10,1,6,3,211
55.38042916976932,10,1,6,3,212
55.4008112369209,10,1,6,3,213
55.393641570973536,10,1,6,3,214
55.38759712561964,10,1,6,3,215
55.4008112369209,10,1,6,3,216
55.40276499867632,10,1,6,3,217
55.40276499867632,10,1,6,3,218
55.44254833847848,10,1,6,3,219
55.4008112369209,10,1,6,3,220
55.38759712561964,10,1,6,3,221
55.393641570973536,10,1,6,3,222
55.38759712561964,10,1,6,3,223
55.4008112369209,10,1,6,3,224
55.40276499867632,10,1,6,3,225
55.4008112369209,10,1,6,3,226
55.4008112369209,10,1,6,3,227
55.38759712561964,10,1,6,3,228
55.40276499867632,10,1,6,3,229
55.42738854664816,10,1,6,3,230
55.44059317377562,10,1,6,3,231
55.4008112369209,10,1,6,3,232
55.43537276516505,10,1,6,3,233
55.4008112369209,10,1,6,3,234
55.40276499867632,10,1,6,3,235
55.44254833847848,10,1,6,3,236
55.4008112369209,10,1,6,3,237
55.4008112369209,10,1,6,3,238
55.4008112369209,10,1,6,3,239
55.4008112369209,10,1,6,3,240
55.38955042136698,10,1,6,3,241
55.393641570973536,10,1,6,3,242
55.38759712561964,10,1,6,3,243
55.40276499867632,10,1,6,3,244
55.4008112369209,10,1,6,3,245
55.40276499867632,10,1,6,3,246
55.40276499867632,10,1,6,3,247
55.40276499867632,10,1,6,3,248
55.38238170723393,10,1,6,3,249
55.4008112369209,10,1,6,3,250
55.39559457426531,10,1,6,3,251
60.91601302234755,10,1,6,4,253
60.90504678206506,10,1,6,4,254
60.90504678206506,10,1,6,4,255
60.91816128288522,10,1,6,4,0
60.91816128288522,10,1,6,4,1
60.90289898400629,10,1,6,4,2
60.91601302234755,10,1,6,4,3
60.86307790483883,10,1,6,4,4
60.908129609551516,10,1,6,4,5
60.90289898400629,10,1,6,4,6
60.91601302234755,10,1,6,4,7
60.91816128288522,10,1,6,4,8
60.91601302234755,10,1,6,4,9
60.90289898400629,10,1,6,4,10
60.89501726835642,10,1,6,4,11
60.90289898400629,10,1,6,4,12
60.90289898400629,10,1,6,4,13
60.908129609551516,10,1,6,4,14
60.91601302234755,10,1,6,4,15
60.91601302234755,10,1,6,4,16
60.91601302234755,10,1,6,4,17
60.91601302234755,10,1,6,4,18
60.90504678206506,10,1,6,4,19
60.90504678206506,10,1,6,4,20
60.89501726835642,10,1,6,4,21
60.91601302234755,10,1,6,4,22
60.91816128288522,10,1,6,4,23
60.90289898400629,10,1,6,4,24
60.9102770361198,10,1,6,4,25
60.897164232625336,10,1,6,4,26
60.91601302234755,10,1,6,4,27
60.908129609551516,10,1,6,4,28
60.90289898400629,10,1,6,4,29
60.91601302234755,10,1,6,4,30
60.89501726835642,10,1,6,4,31
60.91601302234755,10,1,6,4,32
60.90289898400629,10,1,6,4,33
60.91601302234755,10,1,6,4,34
60.91601302234755,10,1,6,4,35
60.91816128288522,10,1,6,4,36
60.91601302234755,10,1,6,4,37
60.908129609551516,10,1,6,4,38
60.90289898400629,10,1,6,4,39
60.91601302234755,10,1,6,4,40
60.89501726835642,10,1,6,4,41
60.865224298569764,10,1,6,4,42
60.91601302234755,10,1,6,4,43
60.89501726835642,10,1,6,4,44
60.865224298569764,10,1,6,4,45
60.90504678206506,10,1,6,4,46
60.908129609551516,10,1,6,4,47
60.91601302234755,10,1,6,4,48
60.87834737800698,10,1,6,4,49
60.90289898400629,10,1,6,4,50
60.865224298569764,10,1,6,4,51
60.908129609551516,10,1,6,4,52
60.908129609551516,10,1,6,4,53
60.90289898400629,10,1,6,4,54
60.90289898400629,10,1,6,4,55
60.90289898400629,10,1,6,4,56
60.90504678206506,10,1,6,4,57
60.91601302234755,10,1,6,4,58
60.89501726835642,10,1,6,4,59
60.90504678206506,10,1,6,4,60
60.876200521494624,10,1,6,4,61
60.90504678206506,10,1,6,4,62
60.90504678206506,10,1,6,4,63
60.89501726835642,10,1,6,4,64
60.89501726835642,10,1,6,4,65
60.9102770361198,10,1,6,4,66
60.9102770361198,10,1,6,4,67
60.91816128288522,10,1,6,4,68
60.86307790483883,10,1,6,4,69
60.90289898400629,10,1,6,4,70
60.90289898400629,10,1,6,4,71
60.865224298569764,10,1,6,4,72
60.87834737800698,10,1,6,4,73
60.91601302234755,10,1,6,4,74
60.91816128288522,10,1,6,4,75
60.90504678206506,10,1,6,4,76
60.90504678206506,10,1,6,4,77
60.90289898400629,10,1,6,4,78
60.91601302234755,10,1,6,4,79
60.91816128288522,10,1,6,4,80
60.86307790483883,10,1,6,4,81
60.91816128288522,10,1,6,4,82
60.90289898400629,10,1,6,4,83
60.90504678206506,10,1,6,4,84
60.90289898400629,10,1,6,4,85
60.91601302234755,10,1,6,4,86
60.91601302234755,10,1,6,4,87
60.876200521494624,10,1,6,4,88
60.90504678206506,10,1,6,4,89
60.908129609551516,10,1,6,4,90
60.90289898400629,10,1,6,4,91
60.90504678206506,10,1,6,4,92
60.908129609551516,10,1,6,4,93
60.865224298569764,10,1,6,4,94
60.876200521494624,10,1,6,4,95
67.36698717837007,10,1,6,5,97
67.36698717837007,10,1,6,5,98
67.32475987528476,10,1,6,5,99
67.33584837862033,10,1,6,5,100
67.32713353178983,10,1,6,5,101
67.37570718386999,10,1,6,5,102
67.37570718386999,10,1,6,5,103
67.37570718386999,10,1,6,5,104
67.37333119992871,10,1,6,5,105
67.37570718386999,10,1,6,5,106
67.33584837862033,10,1,6,5,107
67.33584837862033,10,1,6,5,108
67.32475987528476,10,1,6,5,109
67.33347380028776,10,1,6,5,110
67.33347380028776,10,1,6,5,111
67.33584837862033,10,1,6,5,112
67.36461211680194,10,1,6,5,113
67.33347380028776,10,1,6,5,114
67.36698717837007,10,1,6,5,115
67.33584837862033,10,1,6,5,116
67.37333119992871,10,1,6,5,117
67.37333119992871,10,1,6,5,118
67.36698717837007,10,1,6,5,119
67.33347380028776,10,1,6,5,120
67.33347380028776,10,1,6,5,121
67.37333119992871,10,1,6,5,122
67.33347380028776,10,1,6,5,123
67.36461211680194,10,1,6,5,124
67.33347380028776,10,1,6,5,125
67.38633356987744,10,1,6,5,126
67.33347380028776,10,1,6,5,127
67.3228614472677,10,1,6,5,128
67.34648386537742,10,1,6,5,129
67.3228614472677,10,1,6,5,130
67.33347380028776,10,1,6,5,131
67.33584837862033,10,1,6,5,132
67.33347380028776,10,1,6,5,133
67.33584837862033,10,1,6,5,134
67.36272793693888,10,1,6,5,135
67.35163500722305,10,1,6,5,136
67.37333119992871,10,1,6,5,137
67.32475987528476,10,1,6,5,138
67.33584837862033,10,1,6,5,139
67.33584837862033,10,1,6,5,140
67.33584837862033,10,1,6,5,141
67.36461211680194,10,1,6,5,142
67.3228614472677,10,1,6,5,143
67.33347380028776,10,1,6,5,144
67.36461211680194,10,1,6,5,145
67.33347380028776,10,1,6,5,146
67.32475987528476,10,1,6,5,147
67.33347380028776,10,1,6,5,148
67.33584837862033,10,1,6,5,149
67.32713353178983,10,1,6,5,150
67.36461211680194,10,1,6,5,151
67.33584837862033,10,1,6,5,152
67.33584837862033,10,1,6,5,153
67.32048732691533,10,1,6,5,154
67.33347380028776,10,1,6,5,155
67.36461211680194,10,1,6,5,156
67.33584837862033,10,1,6,5,157
67.37570718386999,10,1,6,5,158
67.33347380028776,10,1,6,5,159
67.32713353178983,10,1,6,5,160
67.33347380028776,10,1,6,5,161
67.33347380028776,10,1,6,5,162
67.36698717837007,10,1,6,5,163
67.33347380028776,10,1,6,5,164
67.32475987528476,10,1,6,5,165
67.33347380028776,10,1,6,5,166
67.33347380028776,10,1,6,5,167
67.32475987528476,10,1,6,5,168
67.37333119992871,10,1,6,5,169
67.33347380028776,10,1,6,5,170
67.36698717837007,10,1,6,5,171
67.32475987528476,10,1,6,5,172
67.33347380028776,10,1,6,5,173
67.32475987528476,10,1,6,5,174
67.33347380028776,10,1,6,5,175
67.33584837862033,10,1,6,5,176
67.32713353178983,10,1,6,5,177
67.32475987528476,10,1,6,5,178
67.32475987528476,10,1,6,5,179
67.32475987528476,10,1,6,5,180
67.33584837862033,10,1,6,5,181
67.33584837862033,10,1,6,5,182
67.33584837862033,10,1,6,5,183
67.36698717837007,10,1,6,5,184
67.33584837862033,10,1,6,5,185
67.33347380028776,10,1,6,5,186
67.32475987528476,10,1,6,5,187
67.32475987528476,10,1,6,5,188
67.33347380028776,10,1,6,5,189
67.32475987528476,10,1,6,5,190
67.33347380028776,10,1,6,5,191
67.33584837862033,10,1,6,5,192
67.33347380028776,10,1,6,5,193
67.33347380028776,10,1,6,5,194
67.3228614472677,10,1,6,5,195
116.66383513910515,10,1,6,6,197
116.63336235365054,10,1,6,6,198
116.63919943766766,10,1,6,6,199
116.66383513910515,10,1,6,6,200
116.67893614520123,10,1,6,6,201
116.67893614520123,10,1,6,6,202
116.66383513910515,10,1,6,6,203
116.63508619156796,10,1,6,6,204
116.62410357443866,10,1,6,6,205
116.63919943766766,10,1,6,6,206
116.63919943766766,10,1,6,6,207
116.67482149779858,10,1,6,6,208
116.67893614520123,10,1,6,6,209
116.65972208903665,10,1,6,6,210
116.64845835064006,10,1,6,6,211
116.63508619156796,10,1,6,6,212
116.66383513910515,10,1,6,6,213
116.67482149779858,10,1,6,6,214
116.62410357443866,10,1,6,6,215
116.63508619156796,10,1,6,6,216
116.66383513910515,10,1,6,6,217
116.61999192512916,10,1,6,6,218
116.63919943766766,10,1,6,6,219
116.67893614520123,10,1,6,6,220
116.67893614520123,10,1,6,6,221
116.63919943766766,10,1,6,6,222
116.66383513910515,10,1,6,6,223
116.63919943766766,10,1,6,6,224
116.61999192512916,10,1,6,6,225
116.65972208903665,10,1,6,6,226
116.61999192512916,10,1,6,6,227
116.63919943766766,10,1,6,6,228
116.61999192512916,10,1,6,6,229
116.63919943766766,10,1,6,6,230
116.63919943766766,10,1,6,6,231
116.62410357443866,10,1,6,6,232
116.64845835064006,10,1,6,6,233
116.62410357443866,10,1,6,6,234
116.66383513910515,10,1,6,6,235
116.66383513910515,10,1,6,6,236
116.63508619156796,10,1,6,6,237
116.61999192512916,10,1,6,6,238
116.62410357443866,10,1,6,6,239
116.66383513910515,10,1,6,6,240
116.62410357443866,10,1,6,6,241
116.62410357443866,10,1,6,6,242
116.63919943766766,10,1,6,6,243
116.61999192512916,10,1,6,6,244
116.62410357443866,10,1,6,6,245
116.63747447435875,10,1,6,6,246
116.63919943766766,10,1,6,6,247
116.61999192512916,10,1,6,6,248
116.63508619156796,10,1,6,6,249
116.63919943766766,10,1,6,6,250
116.62410357443866,10,1,6,6,251
116.61999192512916,10,1,6,6,252
116.62410357443866,10,1,6,6,253
116.63919943766766,10,1,6,6,254
116.63336235365054,10,1,6,6,255
116.63919943766766,10,1,6,6,0
116.61999192512916,10,1,6,6,1
116.62410357443866,10,1,6,6,2
116.63919943766766,10,1,6,6,3
116.62410357443866,10,1,6,6,4
116.61999192512916,10,1,6,6,5
116.62410357443866,10,1,6,6,6
116.62410357443866,10,1,6,6,7
116.59946426174878,10,1,6,6,8
116.61999192512916,10,1,6,6,9
116.62410357443866,10,1,6,6,10
116.63919943766766,10,1,6,6,11
116.63508619156796,10,1,6,6,12
116.63919943766766,10,1,6,6,13
116.62410357443866,10,1,6,6,14
116.62410357443866,10,1,6,6,15
116.62410357443866,10,1,6,6,16
116.61999192512916,10,1,6,6,17
116.61999192512916,10,1,6,6,18
116.61999192512916,10,1,6,6,19
116.61999192512916,10,1,6,6,20
116.59946426174878,10,1,6,6,21
116.62410357443866,10,1,6,6,22
116.61999192512916,10,1,6,6,23
116.62410357443866,10,1,6,6,24
116.63919943766766,10,1,6,6,25
116.63919943766766,10,1,6,6,26
116.62410357443866,10,1,6,6,27
116.61999192512916,10,1,6,6,28
116.59535241689804,10,1,6,6,29
116.63336235365054,10,1,6,6,30
116.58026329258414,10,1,6,6,31
116.63508619156796,10,1,6,6,32
116.63919943766766,10,1,6,6,33
116.59946426174878,10,1,6,6,34
116.63919943766766,10,1,6,6,35
116.62410357443866,10,1,6,6,36
116.63919943766766,10,1,6,6,37
116.63919943766766,10,1,6,6,38
116.59535241689804,10,1,6,6,39
69.0513063641339,10,1,6,7,41
69.06180996274752,10,1,6,7,42
69.06024438847626,10,1,6,7,43
69.06424486210362,10,1,6,7,44
69.06424486210362,10,1,6,7,45
69.03087847334976,10,1,6,7,46
69.06180996274752,10,1,6,7,47
69.07318456120952,10,1,6,7,48
69.07318456120952,10,1,6,7,49
69.06180996274752,10,1,6,7,50
69.06180996274752,10,1,6,7,51
69.0707487162418,10,1,6,7,52
69.0707487162418,10,1,6,7,53
69.06424486210362,10,1,6,7,54
69.06424486210362,10,1,6,7,55
69.07318456120952,10,1,6,7,56
69.06424486210362,10,1,6,7,57
69.07318456120952,10,1,6,7,58
69.04384869125617,10,1,6,7,59
69.07318456120952,10,1,6,7,60
69.0707487162418,10,1,6,7,61
69.03331291225585,10,1,6,7,62
69.06180996274752,10,1,6,7,63
69.0707487162418,10,1,6,7,64
69.03087847334976,10,1,6,7,65
69.0707487162418,10,1,6,7,66
69.06180996274752,10,1,6,7,67
69.03331291225585,10,1,6,7,68
69.08371144865417,10,1,6,7,69
69.0707487162418,10,1,6,7,70
69.06180996274752,10,1,6,7,71
69.07318456120952,10,1,6,7,72
69.0707487162418,10,1,6,7,73
69.0707487162418,10,1,6,7,74
69.0707487162418,10,1,6,7,75
69.0707487162418,10,1,6,7,76
69.07318456120952,10,1,6,7,77
69.0707487162418,10,1,6,7,78
69.03087847334976,10,1,6,7,79
69.0707487162418,10,1,6,7,80
69.0707487162418,10,1,6,7,81
69.0707487162418,10,1,6,7,82
69.06424486210362,10,1,6,7,83
69.11305863869109,10,1,6,7,84
69.08371144865417,10,1,6,7,85
69.07318456120952,10,1,6,7,86
69.0707487162418,10,1,6,7,87
69.06424486210362,10,1,6,7,88
69.0707487162418,10,1,6,7,89
69.07318456120952,10,1,6,7,90
69.0707487162418,10,1,6,7,91
69.06180996274752,10,1,6,7,92
69.07318456120952,10,1,6,7,93
69.06424486210362,10,1,6,7,94
69.0707487162418,10,1,6,7,95
69.06180996274752,10,1,6,7,96
69.10167747398165,10,1,6,7,97
69.0707487162418,10,1,6,7,98
69.06180996274752,10,1,6,7,99
69.0707487162418,10,1,6,7,100
69.0707487162418,10,1,6,7,101
69.06424486210362,10,1,6,7,102
69.07318456120952,10,1,6,7,103
69.0707487162418,10,1,6,7,104
69.0707487162418,10,1,6,7,105
69.07318456120952,10,1,6,7,106
69.0707487162418,10,1,6,7,107
69.07318456120952,10,1,6,7,108
69.06424486210362,10,1,6,7,109
69.06180996274752,10,1,6,7,110
69.0707487162418,10,1,6,7,111
69.07318456120952,10,1,6,7,112
69.06424486210362,10,1,6,7,113
69.06180996274752,10,1,6,7,114
69.0707487162418,10,1,6,7,115
69.07318456120952,10,1,6,7,116
69.0707487162418,10,1,6,7,117
69.07318456120952,10,1,6,7,118
69.07318456120952,10,1,6,7,119
69.08371144865417,10,1,6,7,120
69.0707487162418,10,1,6,7,121
69.0707487162418,10,1,6,7,122
69.06180996274752,10,1,6,7,123
69.06180996274752,10,1,6,7,124
69.0707487162418,10,1,6,7,125
69.06424486210362,10,1,6,7,126
69.06024438847626,10,1,6,7,127
69.07318456120952,10,1,6,7,128
69.0707487162418,10,1,6,7,129
69.07318456120952,10,1,6,7,130
69.0707487162418,10,1,6,7,131
69.07318456120952,10,1,6,7,132
69.07318456120952,10,1,6,7,133
69.12601435066796,10,1,6,7,134
69.08371144865417,10,1,6,7,135
69.10411377893917,10,1,6,7,136
69.06180996274752,10,1,6,7,137
69.0707487162418,10,1,6,7,138
69.07318456120952,10,1,6,7,139
64.27288780269922,10,1,6,8,141
64.26230369114575,10,1,6,8,142
64.27062123874519,10,1,6,8,143
64.27288780269922,10,1,6,8,144
64.27288780269922,10,1,6,8,145
64.27288780269922,10,1,6,8,146
64.26456937520418,10,1,6,8,147
64.26456937520418,10,1,6,8,148
64.3044083229085,10,1,6,8,149
64.26456937520418,10,1,6,8,150
64.26456937520418,10,1,6,8,151
64.26456937520418,10,1,6,8,152
64.24927425831154,10,1,6,8,153
64.26230369114575,10,1,6,8,154
64.27288780269922,10,1,6,8,155
64.26230369114575,10,1,6,8,156
64.27062123874519,10,1,6,8,157
64.27062123874519,10,1,6,8,158
64.26230369114575,10,1,6,8,159
64.2997084035447,10,1,6,8,160
64.27288780269922,10,1,6,8,161
64.3044083229085,10,1,6,8,162
64.26230369114575,10,1,6,8,163
64.27062123874519,10,1,6,8,164
64.3044083229085,10,1,6,8,165
64.25985622389513,10,1,6,8,166
64.3044083229085,10,1,6,8,167
64.28367705567412,10,1,6,8,168
64.27062123874519,10,1,6,8,169
64.27288780269922,10,1,6,8,170
64.27288780269922,10,1,6,8,171
64.27288780269922,10,1,6,8,172
64.30214123430524,10,1,6,8,173
64.27288780269922,10,1,6,8,174
64.31273190717035,10,1,6,8,175
64.27288780269922,10,1,6,8,176
64.27288780269922,10,1,6,8,177
64.3044083229085,10,1,6,8,178
64.24927425831154,10,1,6,8,179
64.30214123430524,10,1,6,8,180
64.26230369114575,10,1,6,8,181
64.27062123874519,10,1,6,8,182
64.27062123874519,10,1,6,8,183
64.27288780269922,10,1,6,8,184
64.27062123874519,10,1,6,8,185
64.2997084035447,10,1,6,8,186
64.27062123874519,10,1,6,8,187
64.31046393812603,10,1,6,8,188
64.27062123874519,10,1,6,8,189
64.26230369114575,10,1,6,8,190
64.31046393812603,10,1,6,8,191
64.26230369114575,10,1,6,8,192
64.26230369114575,10,1,6,8,193
64.27062123874519,10,1,6,8,194
64.27288780269922,10,1,6,8,195
64.26230369114575,10,1,6,8,196
64.27288780269922,10,1,6,8,197
64.27288780269922,10,1,6,8,198
64.27062123874519,10,1,6,8,199
64.27288780269922,10,1,6,8,200
64.31273190717035,10,1,6,8,201
64.27062123874519,10,1,6,8,202
64.31046393812603,10,1,6,8,203
64.27062123874519,10,1,6,8,204
64.27062123874519,10,1,6,8,205
64.27062123874519,10,1,6,8,206
64.27288780269922,10,1,6,8,207
64.27062123874519,10,1,6,8,208
64.27062123874519,10,1,6,8,209
64.27288780269922,10,1,6,8,210
64.31518727575137,10,1,6,8,211
64.31273190717035,10,1,6,8,212
64.31046393812603,10,1,6,8,213
64.30214123430524,10,1,6,8,214
64.27288780269922,10,1,6,8,215
64.27062123874519,10,1,6,8,216
64.27062123874519,10,1,6,8,217
64.27062123874519,10,1,6,8,218
64.31273190717035,10,1,6,8,219
64.27062123874519,10,1,6,8,220
64.27062123874519,10,1,6,8,221
64.26456937520418,10,1,6,8,222
64.27062123874519,10,1,6,8,223
64.28367705567412,10,1,6,8,224
64.27288780269922,10,1,6,8,225
64.26456937520418,10,1,6,8,226
64.31046393812603,10,1,6,8,227
64.27288780269922,10,1,6,8,228
64.3044083229085,10,1,6,8,229
64.31046393812603,10,1,6,8,230
64.27062123874519,10,1,6,8,231
64.31273190717035,10,1,6,8,232
64.31273190717035,10,1,6,8,233
64.27062123874519,10,1,6,8,234
64.28367705567412,10,1,6,8,235
64.27288780269922,10,1,6,8,236
64.27062123874519,10,1,6,8,237
64.31046393812603,10,1,6,8,238
64.27288780269922,10,1,6,8,239
64.31273190717035,10,1,6,8,240
64.26456937520418,10,1,6,8,241
64.27062123874519,10,1,6,8,242
64.31273190717035,10,1,6,8,243
64.27288780269922,10,1,6,8,244
64.31046393812603,10,1,6,8,245
64.27288780269922,10,1,6,8,246
64.27062123874519,10,1,6,8,247
64.31046393812603,10,1,6,8,248
64.27288780269922,10,1,6,8,249
64.27288780269922,10,1,6,8,250
64.31518727575137,10,1,6,8,251
64.27062123874519,10,1,6,8,252
64.31046393812603,10,1,6,8,253
64.27062123874519,10,1,6,8,254
64.27288780269922,10,1,6,8,255
64.30214123430524,10,1,6,8,0
64.30214123430524,10,1,6,8,1
64.31046393812603,10,1,6,8,2
64.31046393812603,10,1,6,8,3
64.3044083229085,10,1,6,8,4
64.27062123874519,10,1,6,8,5
64.30214123430524,10,1,6,8,6
64.27288780269922,10,1,6,8,7
64.31273190717035,10,1,6,8,8
64.31046393812603,10,1,6,8,9
64.30214123430524,10,1,6,8,10
64.28367705567412,10,1,6,8,11
64.27288780269922,10,1,6,8,12
64.31046393812603,10,1,6,8,13
64.31046393812603,10,1,6,8,14
64.27288780269922,10,1,6,8,15
64.27062123874519,10,1,6,8,16
64.27288780269922,10,1,6,8,17
64.31046393812603,10,1,6,8,18
64.27062123874519,10,1,6,8,19
64.27288780269922,10,1,6,8,20
64.31046393812603,10,1,6,8,21
64.31046393812603,10,1,6,8,22
64.31273190717035,10,1,6,8,23
64.30214123430524,10,1,6,8,24
64.31046393812603,10,1,6,8,25
64.30214123430524,10,1,6,8,26
64.31273190717035,10,1,6,8,27
64.31046393812603,10,1,6,8,28
64.26456937520418,10,1,6,8,29
64.27288780269922,10,1,6,8,30
64.31046393812603,10,1,6,8,31
64.31046393812603,10,1,6,8,32
64.30214123430524,10,1,6,8,33
64.27288780269922,10,1,6,8,34
64.31046393812603,10,1,6,8,35
64.31273190717035,10,1,6,8,36
64.31046393812603,10,1,6,8,37
64.31046393812603,10,1,6,8,38
64.31273190717035,10,1,6,8,39
64.30214123430524,10,1,6,8,40
64.30214123430524,10,1,6,8,41
64.26230369114575,10,1,6,8,42
64.31273190717035,10,1,6,8,43
64.27062123874519,10,1,6,8,44
64.3044083229085,10,1,6,8,45
64.31273190717035,10,1,6,8,46
64.2997084035447,10,1,6,8,47
64.27062123874519,10,1,6,8,48
64.31273190717035,10,1,6,8,49
64.30214123430524,10,1,6,8,50
64.28367705567412,10,1,6,8,51
64.31273190717035,10,1,6,8,52
64.31273190717035,10,1,6,8,53
64.31273190717035,10,1,6,8,54
64.31046393812603,10,1,6,8,55
64.27062123874519,10,1,6,8,56
64.27062123874519,10,1,6,8,57
64.31273190717035,10,1,6,8,58
64.27062123874519,10,1,6,8,59
64.3044083229085,10,1,6,8,60
64.31046393812603,10,1,6,8,61
64.31273190717035,10,1,6,8,62
64.31046393812603,10,1,6,8,63
64.27288780269922,10,1,6,8,64
64.3044083229085,10,1,6,8,65
64.3044083229085,10,1,6,8,66
64.31046393812603,10,1,6,8,67
64.31046393812603,10,1,6,8,68
64.27062123874519,10,1,6,8,69
64.27062123874519,10,1,6,8,70
64.31273190717035,10,1,6,8,71
64.30214123430524,10,1,6,8,72
64.30214123430524,10,1,6,8,73
64.31046393812603,10,1,6,8,74
64.31046393812603,10,1,6,8,75
64.31046393812603,10,1,6,8,76
64.27062123874519,10,1,6,8,77
64.31046393812603,10,1,6,8,78
64.31273190717035,10,1,6,8,79
64.27288780269922,10,1,6,8,80
64.31273190717035,10,1,6,8,81
64.27288780269922,10,1,6,8,82
64.31046393812603,10,1,6,8,83
48.286826270174735,10,1,7,2,85
48.31484366423022,10,1,7,2,86
48.32824957662157,10,1,7,2,87
48.32824957662157,10,1,7,2,88
48.288530340496,10,1,7,2,89
48.288530340496,10,1,7,2,90
48.32824957662157,10,1,7,2,91
48.288530340496,10,1,7,2,92
48.32824957662157,10,1,7,2,93
48.294781881395544,10,1,7,2,94
48.32824957662157,10,1,7,2,95
48.32824957662157,10,1,7,2,96
48.316547973841615,10,1,7,2,97
48.32824957662157,10,1,7,2,98
48.32824957662157,10,1,7,2,99
48.33621170439192,10,1,7,2,100
48.32824957662157,10,1,7,2,101
48.32824957662157,10,1,7,2,102
48.27681630626867,10,1,7,2,103
48.32824957662157,10,1,7,2,104
48.32824957662157,10,1,7,2,105
48.32824957662157,10,1,7,2,106
48.29023372190301,10,1,7,2,107
48.288530340496,10,1,7,2,108
48.334506259662064,10,1,7,2,109
48.32824957662157,10,1,7,2,110
48.32824957662157,10,1,7,2,111
48.32824957662157,10,1,7,2,112
48.32824957662157,10,1,7,2,113
48.32824957662157,10,1,7,2,114
48.288530340496,10,1,7,2,115
48.288530340496,10,1,7,2,116
48.32824957662157,10,1,7,2,117
48.294781881395544,10,1,7,2,118
48.32824957662157,10,1,7,2,119
48.32824957662157,10,1,7,2,120
48.32824957662157,10,1,7,2,121
48.32824957662157,10,1,7,2,122
48.32824957662157,10,1,7,2,123
48.32824957662157,10,1,7,2,124
48.32824957662157,10,1,7,2,125
48.34168813587636,10,1,7,2,126
48.32824957662157,10,1,7,2,127
48.32824957662157,10,1,7,2,128
48.334506259662064,10,1,7,2,129
48.32824957662157,10,1,7,2,130
48.32824957662157,10,1,7,2,131
48.321098611711356,10,1,7,2,132
48.288530340496,10,1,7,2,133
48.32824957662157,10,1,7,2,134
48.288530340496,10,1,7,2,135
48.32824957662157,10,1,7,2,136
48.34168813587636,10,1,7,2,137
48.32824957662157,10,1,7,2,138
48.32824957662157,10,1,7,2,139
48.32824957662157,10,1,7,2,140
48.32824957662157,10,1,7,2,141
48.32824957662157,10,1,7,2,142
48.32824957662157,10,1,7,2,143
48.32824957662157,10,1,7,2,144
48.32824957662157,10,1,7,2,145
48.334506259662064,10,1,7,2,146
48.288530340496,10,1,7,2,147
48.32824957662157,10,1,7,2,148
48.31484366423022,10,1,7,2,149
48.34168813587636,10,1,7,2,150
48.31484366423022,10,1,7,2,151
48.288530340496,10,1,7,2,152
48.329954359127505,10,1,7,2,153
48.288530340496,10,1,7,2,154
48.32824957662157,10,1,7,2,155
48.32824957662157,10,1,7,2,156
48.288530340496,10,1,7,2,157
48.329954359127505,10,1,7,2,158
48.32824957662157,10,1,7,2,159
48.288530340496,10,1,7,2,160
48.294781881395544,10,1,7,2,161
48.32824957662157,10,1,7,2,162
48.288530340496,10,1,7,2,163
48.32824957662157,10,1,7,2,164
48.294781881395544,10,1,7,2,165
48.32824957662157,10,1,7,2,166
48.32824957662157,10,1,7,2,167
48.288530340496,10,1,7,2,168
48.31484366423022,10,1,7,2,169
48.32824957662157,10,1,7,2,170
48.31484366423022,10,1,7,2,171
48.32824957662157,10,1,7,2,172
48.288530340496,10,1,7,2,173
48.288530340496,10,1,7,2,174
48.32824957662157,10,1,7,2,175
48.32824957662157,10,1,7,2,176
48.32824957662157,10,1,7,2,177
48.32824957662157,10,1,7,2,178
48.32824957662157,10,1,7,2,179
48.32824957662157,10,1,7,2,180
48.29023372190301,10,1,7,2,181
48.32824957662157,10,1,7,2,182
48.32824957662157,10,1,7,2,183
54.360533738546124,10,1,7,3,185
54.40031135457094,10,1,7,3,186
54.40031135457094,10,1,7,3,187
54.40031135457094,10,1,7,3,188
54.40031135457094,10,1,7,3,189
54.40031135457094,10,1,7,3,190
54.34728962752409,10,1,7,3,191
54.40031135457094,10,1,7,3,192
54.36757137455598,10,1,7,3,193
54.40031135457094,10,1,7,3,194
54.40031135457094,10,1,7,3,195
54.360533738546124,10,1,7,3,196
54.40031135457094,10,1,7,3,197
54.40031135457094,10,1,7,3,198
54.360533738546124,10,1,7,3,199
54.40031135457094,10,1,7,3,200
54.40031135457094,10,1,7,3,201
54.3932703242378,10,1,7,3,202
54.40031135457094,10,1,7,3,203
54.360533738546124,10,1,7,3,204
54.40031135457094,10,1,7,3,205
54.34920673210399,10,1,7,3,206
54.36948969120491,10,1,7,3,207
54.40031135457094,10,1,7,3,208
54.40031135457094,10,1,7,3,209
54.360533738546124,10,1,7,3,210
54.40031135457094,10,1,7,3,211
54.360533738546124,10,1,7,3,212
54.40031135457094,10,1,7,3,213
54.38707693002663,10,1,7,3,214
54.40031135457094,10,1,7,3,215
54.40031135457094,10,1,7,3,216
54.40031135457094,10,1,7,3,217
54.40031135457094,10,1,7,3,218
54.4022303294961,10,1,7,3,219
54.360533738546124,10,1,7,3,220
54.38899543810651,10,1,7,3,221
54.40031135457094,10,1,7,3,222
54.40031135457094,10,1,7,3,223
54.360533738546124,10,1,7,3,224
54.36757137455598,10,1,7,3,225
54.360533738546124,10,1,7,3,226
54.40031135457094,10,1,7,3,227
54.40031135457094,10,1,7,3,228
54.40031135457094,10,1,7,3,229
54.40031135457094,10,1,7,3,230
54.40031135457094,10,1,7,3,231
54.34728962752409,10,1,7,3,232
54.360533738546124,10,1,7,3,233
54.40031135457094,10,1,7,3,234
54.40031135457094,10,1,7,3,235
54.360533738546124,10,1,7,3,236
54.360533738546124,10,1,7,3,237
54.360533738546124,10,1,7,3,238
54.40031135457094,10,1,7,3,239
54.34728962752409,10,1,7,3,240
54.40031135457094,10,1,7,3,241
54.360533738546124,10,1,7,3,242
54.40031135457094,10,1,7,3,243
54.40031135457094,10,1,7,3,244
54.360533738546124,10,1,7,3,245
54.360533738546124,10,1,7,3,246
54.38707693002663,10,1,7,3,247
54.38707693002663,10,1,7,3,248
54.360533738546124,10,1,7,3,249
54.360533738546124,10,1,7,3,250
54.360533738546124,10,1,7,3,251
54.360533738546124,10,1,7,3,252
54.38707693002663,10,1,7,3,253
54.40031135457094,10,1,7,3,254
54.40031135457094,10,1,7,3,255
54.360533738546124,10,1,7,3,0
54.40031135457094,10,1,7,3,1
54.34728962752409,10,1,7,3,2
54.360533738546124,10,1,7,3,3
54.40031135457094,10,1,7,3,4
54.34728962752409,10,1,7,3,5
54.360533738546124,10,1,7,3,6
54.36757137455598,10,1,7,3,7
54.360533738546124,10,1,7,3,8
54.360533738546124,10,1,7,3,9
54.38707693002663,10,1,7,3,10
54.360533738546124,10,1,7,3,11
54.40031135457094,10,1,7,3,12
54.360533738546124,10,1,7,3,13
54.40031135457094,10,1,7,3,14
54.34728962752409,10,1,7,3,15
54.36757137455598,10,1,7,3,16
54.360533738546124,10,1,7,3,17
54.38707693002663,10,1,7,3,18
54.360533738546124,10,1,7,3,19
54.360533738546124,10,1,7,3,20
54.360533738546124,10,1,7,3,21
54.40031135457094,10,1,7,3,22
54.34728962752409,10,1,7,3,23
54.37380695395645,10,1,7,3,24
54.38707693002663,10,1,7,3,25
54.360533738546124,10,1,7,3,26
54.40031135457094,10,1,7,3,27
58.81566097064035,10,1,7,4,29
58.828825460708096,10,1,7,4,30
58.828825460708096,10,1,7,4,31
58.828825460708096,10,1,7,4,32
58.828825460708096,10,1,7,4,33
58.828825460708096,10,1,7,4,34
58.828825460708096,10,1,7,4,35
58.81566097064035,10,1,7,4,36
58.828825460708096,10,1,7,4,37
58.81566097064035,10,1,7,4,38
58.828825460708096,10,1,7,4,39
58.828825460708096,10,1,7,4,40
58.81566097064035,10,1,7,4,41
58.7758507207252,10,1,7,4,42
58.81566097064035,10,1,7,4,43
58.81566097064035,10,1,7,4,44
58.828825460708096,10,1,7,4,45
58.79663508366877,10,1,7,4,46
58.828825460708096,10,1,7,4,47
58.828825460708096,10,1,7,4,48
58.81566097064035,10,1,7,4,49
58.828825460708096,10,1,7,4,50
58.81566097064035,10,1,7,4,51
58.828825460708096,10,1,7,4,52
58.81566097064035,10,1,7,4,53
58.81566097064035,10,1,7,4,54
58.78902412541073,10,1,7,4,55
58.81566097064035,10,1,7,4,56
58.81566097064035,10,1,7,4,57
58.828825460708096,10,1,7,4,58
58.7758507207252,10,1,7,4,59
58.82674943033823,10,1,7,4,60
58.828825460708096,10,1,7,4,61
58.81566097064035,10,1,7,4,62
58.828825460708096,10,1,7,4,63
58.81566097064035,10,1,7,4,64
58.81566097064035,10,1,7,4,65
58.81566097064035,10,1,7,4,66
58.7758507207252,10,1,7,4,67
58.828825460708096,10,1,7,4,68
58.81566097064035,10,1,7,4,69
58.78345997352487,10,1,7,4,70
58.81566097064035,10,1,7,4,71
58.828825460708096,10,1,7,4,72
58.81566097064035,10,1,7,4,73
58.828825460708096,10,1,7,4,74
58.81566097064035,10,1,7,4,75
58.81566097064035,10,1,7,4,76
58.828825460708096,10,1,7,4,77
58.81566097064035,10,1,7,4,78
58.828825460708096,10,1,7,4,79
58.81566097064035,10,1,7,4,80
58.7758507207252,10,1,7,4,81
58.81566097064035,10,1,7,4,82
58.81566097064035,10,1,7,4,83
58.828825460708096,10,1,7,4,84
58.7758507207252,10,1,7,4,85
58.78902412541073,10,1,7,4,86
58.81566097064035,10,1,7,4,87
58.7758507207252,10,1,7,4,88
58.81566097064035,10,1,7,4,89
58.81566097064035,10,1,7,4,90
58.828825460708096,10,1,7,4,91
58.81566097064035,10,1,7,4,92
58.817735697343174,10,1,7,4,93
58.7758507207252,10,1,7,4,94
58.81566097064035,10,1,7,4,95
58.81566097064035,10,1,7,4,96
58.828825460708096,10,1,7,4,97
58.828825460708096,10,1,7,4,98
58.828825460708096,10,1,7,4,99
58.78902412541073,10,1,7,4,100
58.7758507207252,10,1,7,4,101
58.828825460708096,10,1,7,4,102
58.81566097064035,10,1,7,4,103
58.828825460708096,10,1,7,4,104
58.81566097064035,10,1,7,4,105
58.81566097064035,10,1,7,4,106
58.7758507207252,10,1,7,4,107
58.81566097064035,10,1,7,4,108
58.81566097064035,10,1,7,4,109
58.7758507207252,10,1,7,4,110
58.7758507207252,10,1,7,4,111
58.78902412541073,10,1,7,4,112
58.7758507207252,10,1,7,4,113
58.7758507207252,10,1,7,4,114
58.828825460708096,10,1,7,4,115
58.78345997352487,10,1,7,4,116
58.828825460708096,10,1,7,4,117
58.81566097064035,10,1,7,4,118
58.7758507207252,10,1,7,4,119
58.81566097064035,10,1,7,4,120
58.81566097064035,10,1,7,4,121
58.81566097064035,10,1,7,4,122
58.828825460708096,10,1,7,4,123
58.7758507207252,10,1,7,4,124
58.81566097064035,10,1,7,4,125
58.78902412541073,10,1,7,4,126
58.77792404311857,10,1,7,4,127
62.8068096781597,10,1,7,5,129
62.79372328874479,10,1,7,5,130
62.833561809446046,10,1,7,5,131
62.79372328874479,10,1,7,5,132
62.753887490021775,10,1,7,5,133
62.79372328874479,10,1,7,5,134
62.79372328874479,10,1,7,5,135
62.79372328874479,10,1,7,5,136
62.753887490021775,10,1,7,5,137
62.79372328874479,10,1,7,5,138
62.79372328874479,10,1,7,5,139
62.79372328874479,10,1,7,5,140
62.79372328874479,10,1,7,5,141
62.78559589940825,10,1,7,5,142
62.8068096781597,10,1,7,5,143
62.79372328874479,10,1,7,5,144
62.79372328874479,10,1,7,5,145
62.79372328874479,10,1,7,5,146
62.79372328874479,10,1,7,5,147
62.79372328874479,10,1,7,5,148
62.79372328874479,10,1,7,5,149
62.79372328874479,10,1,7,5,150
62.79372328874479,10,1,7,5,151
62.79372328874479,10,1,7,5,152
62.79372328874479,10,1,7,5,153
62.79372328874479,10,1,7,5,154
62.76201174833906,10,1,7,5,155
62.79372328874479,10,1,7,5,156
62.833561809446046,10,1,7,5,157
62.79593834188416,10,1,7,5,158
62.79372328874479,10,1,7,5,159
62.79372328874479,10,1,7,5,160
62.79372328874479,10,1,7,5,161
62.8068096781597,10,1,7,5,162
62.79372328874479,10,1,7,5,163
62.79372328874479,10,1,7,5,164
62.79372328874479,10,1,7,5,165
62.79372328874479,10,1,7,5,166
62.8068096781597,10,1,7,5,167
62.79372328874479,10,1,7,5,168
62.79372328874479,10,1,7,5,169
62.79372328874479,10,1,7,5,170
62.79372328874479,10,1,7,5,171
62.8068096781597,10,1,7,5,172
62.79372328874479,10,1,7,5,173
62.753887490021775,10,1,7,5,174
62.79372328874479,10,1,7,5,175
62.8068096781597,10,1,7,5,176
62.79372328874479,10,1,7,5,177
62.79372328874479,10,1,7,5,178
62.79372328874479,10,1,7,5,179
62.79372328874479,10,1,7,5,180
62.84663990339183,10,1,7,5,181
62.79372328874479,10,1,7,5,182
62.79593834188416,10,1,7,5,183
62.753887490021775,10,1,7,5,184
62.79593834188416,10,1,7,5,185
62.79372328874479,10,1,7,5,186
62.79372328874479,10,1,7,5,187
62.79372328874479,10,1,7,5,188
62.79372328874479,10,1,7,5,189
62.753887490021775,10,1,7,5,190
62.79372328874479,10,1,7,5,191
62.79372328874479,10,1,7,5,192
62.79372328874479,10,1,7,5,193
62.79372328874479,10,1,7,5,194
62.79372328874479,10,1,7,5,195
62.79372328874479,10,1,7,5,196
62.79372328874479,10,1,7,5,197
62.79372328874479,10,1,7,5,198
62.79372328874479,10,1,7,5,199
62.79372328874479,10,1,7,5,200
62.79372328874479,10,1,7,5,201
62.79372328874479,10,1,7,5,202
62.79372328874479,10,1,7,5,203
62.79372328874479,10,1,7,5,204
62.79372328874479,10,1,7,5,205
62.79372328874479,10,1,7,5,206
62.8068096781597,10,1,7,5,207
62.79372328874479,10,1,7,5,208
62.8068096781597,10,1,7,5,209
62.79372328874479,10,1,7,5,210
62.79372328874479,10,1,7,5,211
62.79372328874479,10,1,7,5,212
62.79372328874479,10,1,7,5,213
62.79372328874479,10,1,7,5,214
62.79372328874479,10,1,7,5,215
62.79372328874479,10,1,7,5,216
62.79372328874479,10,1,7,5,217
62.79372328874479,10,1,7,5,218
62.79868059505227,10,1,7,5,219
62.79372328874479,10,1,7,5,220
62.79372328874479,10,1,7,5,221
62.79372328874479,10,1,7,5,222
62.753887490021775,10,1,7,5,223
62.8068096781597,10,1,7,5,224
62.79372328874479,10,1,7,5,225
62.79372328874479,10,1,7,5,226
62.79868059505227,10,1,7,5,227
69.03981429401942,10,1,7,6,229
69.03981429401942,10,1,7,6,230
69.03981429401942,10,1,7,6,231
69.03981429401942,10,1,7,6,232
69.07968969798355,10,1,7,6,233
69.07968969798355,10,1,7,6,234
69.07968969798355,10,1,7,6,235
69.03981429401942,10,1,7,6,236
69.03981429401942,10,1,7,6,237
69.07968969798355,10,1,7,6,238
69.03981429401942,10,1,7,6,239
69.03981429401942,10,1,7,6,240
69.03981429401942,10,1,7,6,241
69.03981429401942,10,1,7,6,242
69.03981429401942,10,1,7,6,243
69.06674830657775,10,1,7,6,244
69.06674830657775,10,1,7,6,245
69.07968969798355,10,1,7,6,246
69.07968969798355,10,1,7,6,247
69.07968969798355,10,1,7,6,248
69.04224967847163,10,1,7,6,249
69.07968969798355,10,1,7,6,250
69.03981429401942,10,1,7,6,251
69.07968969798355,10,1,7,6,252
69.03981429401942,10,1,7,6,253
69.07968969798355,10,1,7,6,254
69.03981429401942,10,1,7,6,255
69.07968969798355,10,1,7,6,0
69.03981429401942,10,1,7,6,1
69.07968969798355,10,1,7,6,2
69.07968969798355,10,1,7,6,3
69.07968969798355,10,1,7,6,4
69.07968969798355,10,1,7,6,5
69.03981429401942,10,1,7,6,6
69.07968969798355,10,1,7,6,7
69.08212648904353,10,1,7,6,8
69.07968969798355,10,1,7,6,9
69.03981429401942,10,1,7,6,10
69.04224967847163,10,1,7,6,11
69.07968969798355,10,1,7,6,12
69.03981429401942,10,1,7,6,13
69.06674830657775,10,1,7,6,14
69.07968969798355,10,1,7,6,15
69.06918464112921,10,1,7,6,16
69.03981429401942,10,1,7,6,17
69.07968969798355,10,1,7,6,18
69.04875234244855,10,1,7,6,19
69.03981429401942,10,1,7,6,20
69.06918464112921,10,1,7,6,21
69.03981429401942,10,1,7,6,22
69.03981429401942,10,1,7,6,23
69.03981429401942,10,1,7,6,24
69.03981429401942,10,1,7,6,25
69.07968969798355,10,1,7,6,26
69.07968969798355,10,1,7,6,27
69.07968969798355,10,1,7,6,28
69.09265410837912,10,1,7,6,29
69.03981429401942,10,1,7,6,30
69.07968969798355,10,1,7,6,31
69.03981429401942,10,1,7,6,32
69.03981429401942,10,1,7,6,33
69.08212648904353,10,1,7,6,34
69.07968969798355,10,1,7,6,35
69.03981429401942,10,1,7,6,36
69.07968969798355,10,1,7,6,37
69.03981429401942,10,1,7,6,38
69.04875234244855,10,1,7,6,39
69.07968969798355,10,1,7,6,40
69.07968969798355,10,1,7,6,41
69.07968969798355,10,1,7,6,42
69.07968969798355,10,1,7,6,43
69.07968969798355,10,1,7,6,44
69.03981429401942,10,1,7,6,45
69.03981429401942,10,1,7,6,46
69.07968969798355,10,1,7,6,47
69.07968969798355,10,1,7,6,48
69.07968969798355,10,1,7,6,49
69.03981429401942,10,1,7,6,50
69.07968969798355,10,1,7,6,51
69.03981429401942,10,1,7,6,52
69.07968969798355,10,1,7,6,53
69.06918464112921,10,1,7,6,54
69.08212648904353,10,1,7,6,55
69.07968969798355,10,1,7,6,56
69.07968969798355,10,1,7,6,57
69.03981429401942,10,1,7,6,58
69.07968969798355,10,1,7,6,59
69.07968969798355,10,1,7,6,60
69.07968969798355,10,1,7,6,61
69.07968969798355,10,1,7,6,62
69.03981429401942,10,1,7,6,63
69.07968969798355,10,1,7,6,64
69.07968969798355,10,1,7,6,65
69.07968969798355,10,1,7,6,66
69.07968969798355,10,1,7,6,67
69.02686542663773,10,1,7,6,68
69.07968969798355,10,1,7,6,69
69.07968969798355,10,1,7,6,70
69.07968969798355,10,1,7,6,71
118.60101608926682,10,1,7,7,73
118.60519974870381,10,1,7,7,74
118.57418495675735,10,1,7,7,75
118.61403663622873,10,1,7,7,76
118.61403663622873,10,1,7,7,77
118.56534228674192,10,1,7,7,78
118.60101608926682,10,1,7,7,79
118.56116003323018,10,1,7,7,80
118.61403663622873,10,1,7,7,81
118.61403663622873,10,1,7,7,82
118.61403663622873,10,1,7,7,83
118.56116003323018,10,1,7,7,84
118.56116003323018,10,1,7,7,85
118.60101608926682,10,1,7,7,86
118.60101608926682,10,1,7,7,87
118.60101608926682,10,1,7,7,88
118.61403663622873,10,1,7,7,89
118.57418495675735,10,1,7,7,90
118.61403663622873,10,1,7,7,91
118.60101608926682,10,1,7,7,92
118.60101608926682,10,1,7,7,93
118.60519974870381,10,1,7,7,94
118.60101608926682,10,1,7,7,95
118.61403663622873,10,1,7,7,96
118.61403663622873,10,1,7,7,97
118.56116003323018,10,1,7,7,98
118.60101608926682,10,1,7,7,99
118.58984759915671,10,1,7,7,100
118.60101608926682,10,1,7,7,101
118.61403663622873,10,1,7,7,102
118.61403663622873,10,1,7,7,103
118.61822075496644,10,1,7,7,104
118.60519974870381,10,1,7,7,105
118.60101608926682,10,1,7,7,106
118.60101608926682,10,1,7,7,107
118.61403663622873,10,1,7,7,108
118.61403663622873,10,1,7,7,109
118.61403663622873,10,1,7,7,110
118.60101608926682,10,1,7,7,111
118.61403663622873,10,1,7,7,112
118.61403663622873,10,1,7,7,113
118.61403663622873,10,1,7,7,114
118.61403663622873,10,1,7,7,115
118.60101608926682,10,1,7,7,116
118.61403663622873,10,1,7,7,117
118.60101608926682,10,1,7,7,118
118.61403663622873,10,1,7,7,119
118.60101608926682,10,1,7,7,120
118.65388974646726,10,1,7,7,121
118.60101608926682,10,1,7,7,122
118.61403663622873,10,1,7,7,123
118.61403663622873,10,1,7,7,124
118.60519974870381,10,1,7,7,125
118.60519974870381,10,1,7,7,126
118.61403663622873,10,1,7,7,127
118.61403663622873,10,1,7,7,128
118.61403663622873,10,1,7,7,129
118.60519974870381,10,1,7,7,130
118.58984759915671,10,1,7,7,131
118.61822075496644,10,1,7,7,132
118.60101608926682,10,1,7,7,133
118.61403663622873,10,1,7,7,134
118.61403663622873,10,1,7,7,135
118.60101608926682,10,1,7,7,136
118.61403663622873,10,1,7,7,137
118.60519974870381,10,1,7,7,138
118.60101608926682,10,1,7,7,139
118.60519974870381,10,1,7,7,140
118.61403663622873,10,1,7,7,141
118.61403663622873,10,1,7,7,142
118.61637044148215,10,1,7,7,143
118.60519974870381,10,1,7,7,144
118.61403663622873,10,1,7,7,145
118.65388974646726,10,1,7,7,146
118.62939267411312,10,1,7,7,147
118.61403663622873,10,1,7,7,148
118.61403663622873,10,1,7,7,149
118.60101608926682,10,1,7,7,150
118.65388974646726,10,1,7,7,151
118.65388974646726,10,1,7,7,152
118.60519974870381,10,1,7,7,153
118.61403663622873,10,1,7,7,154
118.61403663622873,10,1,7,7,155
118.61403663622873,10,1,7,7,156
118.60519974870381,10,1,7,7,157
118.61403663622873,10,1,7,7,158
118.64087357328724,10,1,7,7,159
118.61403663622873,10,1,7,7,160
118.65388974646726,10,1,7,7,161
118.61403663622873,10,1,7,7,162
118.61403663622873,10,1,7,7,163
118.64087357328724,10,1,7,7,164
118.64087357328724,10,1,7,7,165
118.61403663622873,10,1,7,7,166
118.61403663622873,10,1,7,7,167
118.61403663622873,10,1,7,7,168
118.61403663622873,10,1,7,7,169
118.60101608926682,10,1,7,7,170
118.64087357328724,10,1,7,7,171
70.53810094875348,10,1,7,8,173
70.53810094875348,10,1,7,8,174
70.53810094875348,10,1,7,8,175
70.53810094875348,10,1,7,8,176
70.53810094875348,10,1,7,8,177
70.53810094875348,10,1,7,8,178
70.53810094875348,10,1,7,8,179
70.5510714498421,10,1,7,8,180
70.53810094875348,10,1,7,8,181
70.53810094875348,10,1,7,8,182
70.57797670094924,10,1,7,8,183
70.53810094875348,10,1,7,8,184
70.57797670094924,10,1,7,8,185
70.53810094875348,10,1,7,8,186
70.53810094875348,10,1,7,8,187
70.53810094875348,10,1,7,8,188
70.53810094875348,10,1,7,8,189
70.53810094875348,10,1,7,8,190
70.57797670094924,10,1,7,8,191
70.53810094875348,10,1,7,8,192
70.5510714498421,10,1,7,8,193
70.5510714498421,10,1,7,8,194
70.53810094875348,10,1,7,8,195
70.52515298840007,10,1,7,8,196
70.53810094875348,10,1,7,8,197
70.57797670094924,10,1,7,8,198
70.57797670094924,10,1,7,8,199
70.53810094875348,10,1,7,8,200
70.53810094875348,10,1,7,8,201
70.54723296871653,10,1,7,8,202
70.53810094875348,10,1,7,8,203
70.53810094875348,10,1,7,8,204
70.53810094875348,10,1,7,8,205
70.53810094875348,10,1,7,8,206
70.5510714498421,10,1,7,8,207
70.53810094875348,10,1,7,8,208
70.53810094875348,10,1,7,8,209
70.53810094875348,10,1,7,8,210
70.57797670094924,10,1,7,8,211
70.57797670094924,10,1,7,8,212
70.53810094875348,10,1,7,8,213
70.53810094875348,10,1,7,8,214
70.53810094875348,10,1,7,8,215
70.57797670094924,10,1,7,8,216
70.53810094875348,10,1,7,8,217
70.53810094875348,10,1,7,8,218
70.53810094875348,10,1,7,8,219
70.53810094875348,10,1,7,8,220
70.53810094875348,10,1,7,8,221
70.57797670094924,10,1,7,8,222
70.57797670094924,10,1,7,8,223
70.53810094875348,10,1,7,8,224
70.53810094875348,10,1,7,8,225
70.54723296871653,10,1,7,8,226
70.53810094875348,10,1,7,8,227
70.57797670094924,10,1,7,8,228
70.57797670094924,10,1,7,8,229
70.57797670094924,10,1,7,8,230
70.57797670094924,10,1,7,8,231
70.54058918537598,10,1,7,8,232
70.5510714498421,10,1,7,8,233
70.53810094875348,10,1,7,8,234
70.57797670094924,10,1,7,8,235
70.57797670094924,10,1,7,8,236
70.52515298840007,10,1,7,8,237
70.53810094875348,10,1,7,8,238
70.53810094875348,10,1,7,8,239
70.5510714498421,10,1,7,8,240
70.5510714498421,10,1,7,8,241
70.53810094875348,10,1,7,8,242
70.53810094875348,10,1,7,8,243
70.53810094875348,10,1,7,8,244
70.53810094875348,10,1,7,8,245
70.53810094875348,10,1,7,8,246
70.53810094875348,10,1,7,8,247
70.53810094875348,10,1,7,8,248
70.53810094875348,10,1,7,8,249
70.59093987519873,10,1,7,8,250
70.57797670094924,10,1,7,8,251
70.57797670094924,10,1,7,8,252
70.53810094875348,10,1,7,8,253
70.53810094875348,10,1,7,8,254
70.57797670094924,10,1,7,8,255
70.53810094875348,10,1,7,8,0
70.53810094875348,10,1,7,8,1
70.53810094875348,10,1,7,8,2
70.53810094875348,10,1,7,8,3
70.57797670094924,10,1,7,8,4
70.53810094875348,10,1,7,8,5
70.5510714498421,10,1,7,8,6
70.57797670094924,10,1,7,8,7
70.53810094875348,10,1,7,8,8
70.53810094875348,10,1,7,8,9
70.54723296871653,10,1,7,8,10
70.53810094875348,10,1,7,8,11
70.53810094875348,10,1,7,8,12
70.53810094875348,10,1,7,8,13
70.59093987519873,10,1,7,8,14
70.53810094875348,10,1,7,8,15
70.5510714498421,10,1,7,8,16
70.53810094875348,10,1,7,8,17
70.53810094875348,10,1,7,8,18
70.53810094875348,10,1,7,8,19
70.53810094875348,10,1,7,8,20
70.53810094875348,10,1,7,8,21
70.54058918537598,10,1,7,8,22
70.54723296871653,10,1,7,8,23
70.53810094875348,10,1,7,8,24
70.53810094875348,10,1,7,8,25
70.57797670094924,10,1,7,8,26
70.5510714498421,10,1,7,8,27
70.54058918537598,10,1,7,8,28
70.5510714498421,10,1,7,8,29
70.57797670094924,10,1,7,8,30
70.52515298840007,10,1,7,8,31
70.53810094875348,10,1,7,8,32
70.53810094875348,10,1,7,8,33
70.53810094875348,10,1,7,8,34
70.53810094875348,10,1,7,8,35
70.50735443529113,10,1,7,8,36
70.53810094875348,10,1,7,8,37
70.53810094875348,10,1,7,8,38
70.53810094875348,10,1,7,8,39
70.53810094875348,10,1,7,8,40
70.56020514899517,10,1,7,8,41
70.53810094875348,10,1,7,8,42
70.5510714498421,10,1,7,8,43
70.52764076828234,10,1,7,8,44
70.53810094875348,10,1,7,8,45
70.57797670094924,10,1,7,8,46
70.53810094875348,10,1,7,8,47
70.5510714498421,10,1,7,8,48
70.53810094875348,10,1,7,8,49
70.53810094875348,10,1,7,8,50
70.53810094875348,10,1,7,8,51
70.53810094875348,10,1,7,8,52
70.53810094875348,10,1,7,8,53
70.53810094875348,10,1,7,8,54
70.53810094875348,10,1,7,8,55
70.53810094875348,10,1,7,8,56
70.53810094875348,10,1,7,8,57
70.53810094875348,10,1,7,8,58
70.57797670094924,10,1,7,8,59
70.53810094875348,10,1,7,8,60
70.53810094875348,10,1,7,8,61
70.53810094875348,10,1,7,8,62
70.53810094875348,10,1,7,8,63
70.53810094875348,10,1,7,8,64
70.53810094875348,10,1,7,8,65
70.54058918537598,10,1,7,8,66
70.53810094875348,10,1,7,8,67
70.53810094875348,10,1,7,8,68
70.53810094875348,10,1,7,8,69
70.53810094875348,10,1,7,8,70
70.53810094875348,10,1,7,8,71
70.57797670094924,10,1,7,8,72
70.53810094875348,10,1,7,8,73
70.53810094875348,10,1,7,8,74
70.53810094875348,10,1,7,8,75
70.53810094875348,10,1,7,8,76
70.53810094875348,10,1,7,8,77
70.53810094875348,10,1,7,8,78
70.53810094875348,10,1,7,8,79
70.53810094875348,10,1,7,8,80
70.5510714498421,10,1,7,8,81
70.53810094875348,10,1,7,8,82
70.53810094875348,10,1,7,8,83
70.53810094875348,10,1,7,8,84
70.53810094875348,10,1,7,8,85
70.53810094875348,10,1,7,8,86
70.57797670094924,10,1,7,8,87
70.49822757742372,10,1,7,8,88
70.53810094875348,10,1,7,8,89
70.53810094875348,10,1,7,8,90
70.53810094875348,10,1,7,8,91
70.53810094875348,10,1,7,8,92
70.53810094875348,10,1,7,8,93
70.53810094875348,10,1,7,8,94
70.53810094875348,10,1,7,8,95
70.53810094875348,10,1,7,8,96
70.53810094875348,10,1,7,8,97
70.53810094875348,10,1,7,8,98
70.53810094875348,10,1,7,8,99
70.53810094875348,10,1,7,8,100
70.53810094875348,10,1,7,8,101
70.53810094875348,10,1,7,8,102
70.54058918537598,10,1,7,8,103
70.52515298840007,10,1,7,8,104
70.53810094875348,10,1,7,8,105
70.53810094875348,10,1,7,8,106
70.53810094875348,10,1,7,8,107
70.53810094875348,10,1,7,8,108
70.53810094875348,10,1,7,8,109
70.53810094875348,10,1,7,8,110
70.53810094875348,10,1,7,8,111
70.53810094875348,10,1,7,8,112
70.53810094875348,10,1,7,8,113
70.49822757742372,10,1,7,8,114
70.49822757742372,10,1,7,8,115
47.98533704208218,10,1,8,2,117
47.98533704208218,10,1,8,2,118
47.943933020369336,10,1,8,2,119
47.98364441554828,10,1,8,2,120
47.98364441554828,10,1,8,2,121
47.98533704208218,10,1,8,2,122
47.98364441554828,10,1,8,2,123
47.98364441554828,10,1,8,2,124
47.98364441554828,10,1,8,2,125
47.98364441554828,10,1,8,2,126
47.943933020369336,10,1,8,2,127
47.943933020369336,10,1,8,2,128
47.98364441554828,10,1,8,2,129
47.98364441554828,10,1,8,2,130
47.98364441554828,10,1,8,2,131
47.98364441554828,10,1,8,2,132
47.98533704208218,10,1,8,2,133
47.98985648523557,10,1,8,2,134
47.978118632225076,10,1,8,2,135
47.98985648523557,10,1,8,2,136
47.976425822079534,10,1,8,2,137
47.98985648523557,10,1,8,2,138
48.02335957821757,10,1,8,2,139
47.98985648523557,10,1,8,2,140
47.98364441554828,10,1,8,2,141
47.98364441554828,10,1,8,2,142
47.98533704208218,10,1,8,2,143
47.98364441554828,10,1,8,2,144
47.98364441554828,10,1,8,2,145
47.98364441554828,10,1,8,2,146
47.98364441554828,10,1,8,2,147
47.971907643758406,10,1,8,2,148
47.98364441554828,10,1,8,2,149
47.98364441554828,10,1,8,2,150
47.98364441554828,10,1,8,2,151
47.98985648523557,10,1,8,2,152
47.98364441554828,10,1,8,2,153
47.98364441554828,10,1,8,2,154
47.98364441554828,10,1,8,2,155
47.976425822079534,10,1,8,2,156
47.98364441554828,10,1,8,2,157
47.98364441554828,10,1,8,2,158
47.99154976927141,10,1,8,2,159
47.98985648523557,10,1,8,2,160
47.97021549093079,10,1,8,2,161
47.98364441554828,10,1,8,2,162
47.98364441554828,10,1,8,2,163
47.98364441554828,10,1,8,2,164
47.98985648523557,10,1,8,2,165
47.98364441554828,10,1,8,2,166
47.943933020369336,10,1,8,2,167
47.98985648523557,10,1,8,2,168
47.98985648523557,10,1,8,2,169
47.98364441554828,10,1,8,2,170
47.98985648523557,10,1,8,2,171
47.943933020369336,10,1,8,2,172
47.98364441554828,10,1,8,2,173
47.98364441554828,10,1,8,2,174
47.98985648523557,10,1,8,2,175
47.97021549093079,10,1,8,2,176
47.98364441554828,10,1,8,2,177
47.98364441554828,10,1,8,2,178
47.98364441554828,10,1,8,2,179
47.95183183160013,10,1,8,2,180
47.98364441554828,10,1,8,2,181
47.98364441554828,10,1,8,2,182
47.943933020369336,10,1,8,2,183
47.943933020369336,10,1,8,2,184
47.943933020369336,10,1,8,2,185
47.98364441554828,10,1,8,2,186
47.93218372122682,10,1,8,2,187
47.98364441554828,10,1,8,2,188
47.943933020369336,10,1,8,2,189
47.98364441554828,10,1,8,2,190
47.98364441554828,10,1,8,2,191
47.943933020369336,10,1,8,2,192
47.95013994893079,10,1,8,2,193
47.98364441554828,10,1,8,2,194
47.98364441554828,10,1,8,2,195
47.98364441554828,10,1,8,2,196
47.943933020369336,10,1,8,2,197
47.943933020369336,10,1,8,2,198
47.943933020369336,10,1,8,2,199
47.93218372122682,10,1,8,2,200
47.98533704208218,10,1,8,2,201
47.95013994893079,10,1,8,2,202
47.943933020369336,10,1,8,2,203
47.98364441554828,10,1,8,2,204
47.943933020369336,10,1,8,2,205
47.95013994893079,10,1,8,2,206
47.98364441554828,10,1,8,2,207
47.98533704208218,10,1,8,2,208
47.943933020369336,10,1,8,2,209
47.95013994893079,10,1,8,2,210
47.98364441554828,10,1,8,2,211
47.943933020369336,10,1,8,2,212
47.98364441554828,10,1,8,2,213
47.98364441554828,10,1,8,2,214
47.95013994893079,10,1,8,2,215
53.65782603806049,10,1,8,3,217
53.62499646993175,10,1,8,3,218
53.62688858541396,10,1,8,3,219
53.65782603806049,10,1,8,3,220
53.61805495688191,10,1,8,3,221
53.61805495688191,10,1,8,3,222
53.62499646993175,10,1,8,3,223
53.61805495688191,10,1,8,3,224
53.61805495688191,10,1,8,3,225
53.60479137261915,10,1,8,3,226
53.61362281596234,10,1,8,3,227
53.611731168535776,10,1,8,3,228
53.65782603806049,10,1,8,3,229
53.65782603806049,10,1,8,3,230
53.611731168535776,10,1,8,3,231
53.61805495688191,10,1,8,3,232
53.62499646993175,10,1,8,3,233
53.611731168535776,10,1,8,3,234
53.61805495688191,10,1,8,3,235
53.61805495688191,10,1,8,3,236
53.61805495688191,10,1,8,3,237
53.61805495688191,10,1,8,3,238
53.60479137261915,10,1,8,3,239
53.65782603806049,10,1,8,3,240
53.61805495688191,10,1,8,3,241
53.65782603806049,10,1,8,3,242
53.65782603806049,10,1,8,3,243
53.60479137261915,10,1,8,3,244
53.65782603806049,10,1,8,3,245
53.666666218918195,10,1,8,3,246
53.64457228717158,10,1,8,3,247
53.671109269632524,10,1,8,3,248
53.61805495688191,10,1,8,3,249
53.61805495688191,10,1,8,3,250
53.61805495688191,10,1,8,3,251
53.64457228717158,10,1,8,3,252
53.671109269632524,10,1,8,3,253
53.62499646993175,10,1,8,3,254
53.61805495688191,10,1,8,3,255
53.65782603806049,10,1,8,3,0
53.62499646993175,10,1,8,3,1
53.62499646993175,10,1,8,3,2
53.65782603806049,10,1,8,3,3
53.60479137261915,10,1,8,3,4
53.61805495688191,10,1,8,3,5
53.61805495688191,10,1,8,3,6
53.62499646993175,10,1,8,3,7
53.61805495688191,10,1,8,3,8
53.60479137261915,10,1,8,3,9
53.61805495688191,10,1,8,3,10
53.61805495688191,10,1,8,3,11
53.61805495688191,10,1,8,3,12
53.65782603806049,10,1,8,3,13
53.61805495688191,10,1,8,3,14
53.62499646993175,10,1,8,3,15
53.65782603806049,10,1,8,3,16
53.65782603806049,10,1,8,3,17
53.65782603806049,10,1,8,3,18
53.61805495688191,10,1,8,3,19
53.61805495688191,10,1,8,3,20
53.65782603806049,10,1,8,3,21
53.60479137261915,10,1,8,3,22
53.61805495688191,10,1,8,3,23
53.65782603806049,10,1,8,3,24
53.659718821762304,10,1,8,3,25
53.659718821762304,10,1,8,3,26
53.61805495688191,10,1,8,3,27
53.61805495688191,10,1,8,3,28
53.61805495688191,10,1,8,3,29
53.65782603806049,10,1,8,3,30
53.61994633765595,10,1,8,3,31
53.61805495688191,10,1,8,3,32
53.61805495688191,10,1,8,3,33
53.61805495688191,10,1,8,3,34
53.61805495688191,10,1,8,3,35
53.62499646993175,10,1,8,3,36
53.65782603806049,10,1,8,3,37
53.61805495688191,10,1,8,3,38
53.62499646993175,10,1,8,3,39
53.62688858541396,10,1,8,3,40
53.62499646993175,10,1,8,3,41
53.61805495688191,10,1,8,3,42
53.61805495688191,10,1,8,3,43
53.61805495688191,10,1,8,3,44
53.61805495688191,10,1,8,3,45
53.65782603806049,10,1,8,3,46
53.61805495688191,10,1,8,3,47
53.61805495688191,10,1,8,3,48
53.63134803882224,10,1,8,3,49
53.62499646993175,10,1,8,3,50
53.65782603806049,10,1,8,3,51
53.65782603806049,10,1,8,3,52
53.61994633765595,10,1,8,3,53
53.61805495688191,10,1,8,3,54
53.65782603806049,10,1,8,3,55
53.606682285519305,10,1,8,3,56
53.61805495688191,10,1,8,3,57
53.61994633765595,10,1,8,3,58
53.61805495688191,10,1,8,3,59
57.502961574610836,10,1,8,4,61
57.47635865987542,10,1,8,4,62
57.51615144392339,10,1,8,4,63
57.51615144392339,10,1,8,4,64
57.51818033033348,10,1,8,4,65
57.47635865987542,10,1,8,4,66
57.47635865987542,10,1,8,4,67
57.51615144392339,10,1,8,4,68
57.50498999574734,10,1,8,4,69
57.48379967753291,10,1,8,4,70
57.47635865987542,10,1,8,4,71
57.47635865987542,10,1,8,4,72
57.47635865987542,10,1,8,4,73
57.472626770085554,10,1,8,4,74
57.48379967753291,10,1,8,4,75
57.46315965668331,10,1,8,4,76
57.47635865987542,10,1,8,4,77
57.51615144392339,10,1,8,4,78
57.47635865987542,10,1,8,4,79
57.47635865987542,10,1,8,4,80
57.47635865987542,10,1,8,4,81
57.502961574610836,10,1,8,4,82
57.47635865987542,10,1,8,4,83
57.47635865987542,10,1,8,4,84
57.51615144392339,10,1,8,4,85
57.48379967753291,10,1,8,4,86
57.502961574610836,10,1,8,4,87
57.51615144392339,10,1,8,4,88
57.46315965668331,10,1,8,4,89
57.51615144392339,10,1,8,4,90
57.51615144392339,10,1,8,4,91
57.47635865987542,10,1,8,4,92
57.48379967753291,10,1,8,4,93
57.51615144392339,10,1,8,4,94
57.47635865987542,10,1,8,4,95
57.51615144392339,10,1,8,4,96
57.47838614259218,10,1,8,4,97
57.47635865987542,10,1,8,4,98
57.47635865987542,10,1,8,4,99
57.470598965568406,10,1,8,4,100
57.47635865987542,10,1,8,4,101
57.470598965568406,10,1,8,4,102
57.48379967753291,10,1,8,4,103
57.51615144392339,10,1,8,4,104
57.48379967753291,10,1,8,4,105
57.48582794782673,10,1,8,4,106
57.51615144392339,10,1,8,4,107
57.47635865987542,10,1,8,4,108
57.48379967753291,10,1,8,4,109
57.48379967753291,10,1,8,4,110
57.47635865987542,10,1,8,4,111
57.48379967753291,10,1,8,4,112
57.51615144392339,10,1,8,4,113
57.51615144392339,10,1,8,4,114
57.51615144392339,10,1,8,4,115
57.47635865987542,10,1,8,4,116
57.51615144392339,10,1,8,4,117
57.47635865987542,10,1,8,4,118
57.47635865987542,10,1,8,4,119
57.51615144392339,10,1,8,4,120
57.51615144392339,10,1,8,4,121
57.51615144392339,10,1,8,4,122
57.48582794782673,10,1,8,4,123
57.48379967753291,10,1,8,4,124
57.47635865987542,10,1,8,4,125
57.470598965568406,10,1,8,4,126
57.48379967753291,10,1,8,4,127
57.5235976132435,10,1,8,4,128
57.51615144392339,10,1,8,4,129
57.502961574610836,10,1,8,4,130
57.46315965668331,10,1,8,4,131
57.48379967753291,10,1,8,4,132
57.51615144392339,10,1,8,4,133
57.51615144392339,10,1,8,4,134
57.5235976132435,10,1,8,4,135
57.51615144392339,10,1,8,4,136
57.48379967753291,10,1,8,4,137
57.51615144392339,10,1,8,4,138
57.502961574610836,10,1,8,4,139
57.51615144392339,10,1,8,4,140
57.502961574610836,10,1,8,4,141
57.51615144392339,10,1,8,4,142
57.51615144392339,10,1,8,4,143
57.46315965668331,10,1,8,4,144
57.51615144392339,10,1,8,4,145
57.5235976132435,10,1,8,4,146
57.51615144392339,10,1,8,4,147
57.51615144392339,10,1,8,4,148
57.51615144392339,10,1,8,4,149
57.5235976132435,10,1,8,4,150
57.51615144392339,10,1,8,4,151
57.50498999574734,10,1,8,4,152
57.51615144392339,10,1,8,4,153
57.502961574610836,10,1,8,4,154
57.5235976132435,10,1,8,4,155
57.51615144392339,10,1,8,4,156
57.510406036341045,10,1,8,4,157
57.51615144392339,10,1,8,4,158
57.51615144392339,10,1,8,4,159
60.62675650753161,10,1,8,5,161
60.61890864833962,10,1,8,5,162
60.57909365950439,10,1,8,5,163
60.57909365950439,10,1,8,5,164
60.61890864833962,10,1,8,5,165
60.61890864833962,10,1,8,5,166
60.61890864833962,10,1,8,5,167
60.61890864833962,10,1,8,5,168
60.62104698473496,10,1,8,5,169
60.57909365950439,10,1,8,5,170
60.573802309481366,10,1,8,5,171
60.61890864833962,10,1,8,5,172
60.61890864833962,10,1,8,5,173
60.58693636415906,10,1,8,5,174
60.62675650753161,10,1,8,5,175
60.58693636415906,10,1,8,5,176
60.60578492111077,10,1,8,5,177
60.568097773644574,10,1,8,5,178
60.61890864833962,10,1,8,5,179
60.61890864833962,10,1,8,5,180
60.62104698473496,10,1,8,5,181
60.61890864833962,10,1,8,5,182
60.61890864833962,10,1,8,5,183
60.61890864833962,10,1,8,5,184
60.62675650753161,10,1,8,5,185
60.62675650753161,10,1,8,5,186
60.60578492111077,10,1,8,5,187
60.57909365950439,10,1,8,5,188
60.62675650753161,10,1,8,5,189
60.61576978518905,10,1,8,5,190
60.607922794565674,10,1,8,5,191
60.62675650753161,10,1,8,5,192
60.57909365950439,10,1,8,5,193
60.61890864833962,10,1,8,5,194
60.61890864833962,10,1,8,5,195
60.61890864833962,10,1,8,5,196
60.61890864833962,10,1,8,5,197
60.61890864833962,10,1,8,5,198
60.61890864833962,10,1,8,5,199
60.61890864833962,10,1,8,5,200
60.57593960806804,10,1,8,5,201
60.57909365950439,10,1,8,5,202
60.61890864833962,10,1,8,5,203
60.61890864833962,10,1,8,5,204
60.61890864833962,10,1,8,5,205
60.61890864833962,10,1,8,5,206
60.61890864833962,10,1,8,5,207
60.62675650753161,10,1,8,5,208
60.57909365950439,10,1,8,5,209
60.61890864833962,10,1,8,5,210
60.61890864833962,10,1,8,5,211
60.58693636415906,10,1,8,5,212
60.61890864833962,10,1,8,5,213
60.57909365950439,10,1,8,5,214
60.61890864833962,10,1,8,5,215
60.61890864833962,10,1,8,5,216
60.60578492111077,10,1,8,5,217
60.62675650753161,10,1,8,5,218
60.62675650753161,10,1,8,5,219
60.58693636415906,10,1,8,5,220
60.61890864833962,10,1,8,5,221
60.58693636415906,10,1,8,5,222
60.61890864833962,10,1,8,5,223
60.62104698473496,10,1,8,5,224
60.60578492111077,10,1,8,5,225
60.607922794565674,10,1,8,5,226
60.61890864833962,10,1,8,5,227
60.58693636415906,10,1,8,5,228
60.62675650753161,10,1,8,5,229
60.607922794565674,10,1,8,5,230
60.607922794565674,10,1,8,5,231
60.61890864833962,10,1,8,5,232
60.61890864833962,10,1,8,5,233
60.61890864833962,10,1,8,5,234
60.61890864833962,10,1,8,5,235
60.61890864833962,10,1,8,5,236
60.61890864833962,10,1,8,5,237
60.62675650753161,10,1,8,5,238
60.61890864833962,10,1,8,5,239
60.61890864833962,10,1,8,5,240
60.61890864833962,10,1,8,5,241
60.61890864833962,10,1,8,5,242
60.60578492111077,10,1,8,5,243
60.62104698473496,10,1,8,5,244
60.61890864833962,10,1,8,5,245
60.61890864833962,10,1,8,5,246
60.61890864833962,10,1,8,5,247
60.61890864833962,10,1,8,5,248
60.62675650753161,10,1,8,5,249
60.61890864833962,10,1,8,5,250
60.61890864833962,10,1,8,5,251
60.61890864833962,10,1,8,5,252
60.61890864833962,10,1,8,5,253
60.57909365950439,10,1,8,5,254
60.62675650753161,10,1,8,5,255
60.61890864833962,10,1,8,5,0
60.62675650753161,10,1,8,5,1
60.61890864833962,10,1,8,5,2
60.61890864833962,10,1,8,5,3
64.24741218699579,10,1,8,6,5
64.28726255486815,10,1,8,6,6
64.27894085973828,10,1,8,6,7
64.27894085973828,10,1,8,6,8
64.29199836669986,10,1,8,6,9
64.27894085973828,10,1,8,6,10
64.27894085973828,10,1,8,6,11
64.27894085973828,10,1,8,6,12
64.27894085973828,10,1,8,6,13
64.28120830403509,10,1,8,6,14
64.28726255486815,10,1,8,6,15
64.27894085973828,10,1,8,6,16
64.27894085973828,10,1,8,6,17
64.27894085973828,10,1,8,6,18
64.24741218699579,10,1,8,6,19
64.28726255486815,10,1,8,6,20
64.27894085973828,10,1,8,6,21
64.28726255486815,10,1,8,6,22
64.29199836669986,10,1,8,6,23
64.28726255486815,10,1,8,6,24
64.29199836669986,10,1,8,6,25
64.27422806152696,10,1,8,6,26
64.27894085973828,10,1,8,6,27
64.31878871662579,10,1,8,6,28
64.27894085973828,10,1,8,6,29
64.27894085973828,10,1,8,6,30
64.23909565031563,10,1,8,6,31
64.23909565031563,10,1,8,6,32
64.27894085973828,10,1,8,6,33
64.28726255486815,10,1,8,6,34
64.27894085973828,10,1,8,6,35
64.28726255486815,10,1,8,6,36
64.27894085973828,10,1,8,6,37
64.27894085973828,10,1,8,6,38
64.27894085973828,10,1,8,6,39
64.27894085973828,10,1,8,6,40
64.27894085973828,10,1,8,6,41
64.27894085973828,10,1,8,6,42
64.31878871662579,10,1,8,6,43
64.28726255486815,10,1,8,6,44
64.28726255486815,10,1,8,6,45
64.28120830403509,10,1,8,6,46
64.28120830403509,10,1,8,6,47
64.27894085973828,10,1,8,6,48
64.27894085973828,10,1,8,6,49
64.28726255486815,10,1,8,6,50
64.24967910599425,10,1,8,6,51
64.27894085973828,10,1,8,6,52
64.27894085973828,10,1,8,6,53
64.27894085973828,10,1,8,6,54
64.27894085973828,10,1,8,6,55
64.28726255486815,10,1,8,6,56
64.27894085973828,10,1,8,6,57
64.27894085973828,10,1,8,6,58
64.28726255486815,10,1,8,6,59
64.27894085973828,10,1,8,6,60
64.27894085973828,10,1,8,6,61
64.27894085973828,10,1,8,6,62
64.27894085973828,10,1,8,6,63
64.27894085973828,10,1,8,6,64
64.27894085973828,10,1,8,6,65
64.27894085973828,10,1,8,6,66
64.27894085973828,10,1,8,6,67
64.27894085973828,10,1,8,6,68
64.28120830403509,10,1,8,6,69
64.27894085973828,10,1,8,6,70
64.27894085973828,10,1,8,6,71
64.27894085973828,10,1,8,6,72
64.27894085973828,10,1,8,6,73
64.27894085973828,10,1,8,6,74
64.28120830403509,10,1,8,6,75
64.28120830403509,10,1,8,6,76
64.27894085973828,10,1,8,6,77
64.27894085973828,10,1,8,6,78
64.27894085973828,10,1,8,6,79
64.28726255486815,10,1,8,6,80
64.28953087995527,10,1,8,6,81
64.27894085973828,10,1,8,6,82
64.28726255486815,10,1,8,6,83
64.28726255486815,10,1,8,6,84
64.27422806152696,10,1,8,6,85
64.2681750382169,10,1,8,6,86
64.27894085973828,10,1,8,6,87
64.27894085973828,10,1,8,6,88
64.28120830403509,10,1,8,6,89
64.27894085973828,10,1,8,6,90
64.2681750382169,10,1,8,6,91
64.28120830403509,10,1,8,6,92
64.29199836669986,10,1,8,6,93
64.27894085973828,10,1,8,6,94
64.27894085973828,10,1,8,6,95
64.27422806152696,10,1,8,6,96
64.28726255486815,10,1,8,6,97
64.27894085973828,10,1,8,6,98
64.27894085973828,10,1,8,6,99
64.27894085973828,10,1,8,6,100
64.28726255486815,10,1,8,6,101
64.27894085973828,10,1,8,6,102
64.27894085973828,10,1,8,6,103
70.41463289119528,10,1,8,7,105
70.39257066127473,10,1,8,7,106
70.43245392935766,10,1,8,7,107
70.39257066127473,10,1,8,7,108
70.40168384056201,10,1,8,7,109
70.39257066127473,10,1,8,7,110
70.40168384056201,10,1,8,7,111
70.39257066127473,10,1,8,7,112
70.40168384056201,10,1,8,7,113
70.39505376430583,10,1,8,7,114
70.39505376430583,10,1,8,7,115
70.39257066127473,10,1,8,7,116
70.39257066127473,10,1,8,7,117
70.4453939735275,10,1,8,7,118
70.40168384056201,10,1,8,7,119
70.41463289119528,10,1,8,7,120
70.39257066127473,10,1,8,7,121
70.40168384056201,10,1,8,7,122
70.41463289119528,10,1,8,7,123
70.39257066127473,10,1,8,7,124
70.39257066127473,10,1,8,7,125
70.39257066127473,10,1,8,7,126
70.39505376430583,10,1,8,7,127
70.39505376430583,10,1,8,7,128
70.39257066127473,10,1,8,7,129
70.39505376430583,10,1,8,7,130
70.40168384056201,10,1,8,7,131
70.4453939735275,10,1,8,7,132
70.39257066127473,10,1,8,7,133
70.39257066127473,10,1,8,7,134
70.39257066127473,10,1,8,7,135
70.39257066127473,10,1,8,7,136
70.39257066127473,10,1,8,7,137
70.43245392935766,10,1,8,7,138
70.40168384056201,10,1,8,7,139
70.40168384056201,10,1,8,7,140
70.39257066127473,10,1,8,7,141
70.40551803571202,10,1,8,7,142
70.40168384056201,10,1,8,7,143
70.40416790815617,10,1,8,7,144
70.39257066127473,10,1,8,7,145
70.40551803571202,10,1,8,7,146
70.40551803571202,10,1,8,7,147
70.39257066127473,10,1,8,7,148
70.39505376430583,10,1,8,7,149
70.40416790815617,10,1,8,7,150
70.42202052518854,10,1,8,7,151
70.39257066127473,10,1,8,7,152
70.39257066127473,10,1,8,7,153
70.40168384056201,10,1,8,7,154
70.40168384056201,10,1,8,7,155
70.40168384056201,10,1,8,7,156
70.39257066127473,10,1,8,7,157
70.43245392935766,10,1,8,7,158
70.41463289119528,10,1,8,7,159
70.40168384056201,10,1,8,7,160
70.40168384056201,10,1,8,7,161
70.39257066127473,10,1,8,7,162
70.40168384056201,10,1,8,7,163
70.40168384056201,10,1,8,7,164
70.39505376430583,10,1,8,7,165
70.39257066127473,10,1,8,7,166
70.40168384056201,10,1,8,7,167
70.40168384056201,10,1,8,7,168
70.40168384056201,10,1,8,7,169
70.40551803571202,10,1,8,7,170
70.39257066127473,10,1,8,7,171
70.39257066127473,10,1,8,7,172
70.39257066127473,10,1,8,7,173
70.40168384056201,10,1,8,7,174
70.40168384056201,10,1,8,7,175
70.39505376430583,10,1,8,7,176
70.39257066127473,10,1,8,7,177
70.39257066127473,10,1,8,7,178
70.40168384056201,10,1,8,7,179
70.40168384056201,10,1,8,7,180
70.39257066127473,10,1,8,7,181
70.37964588269134,10,1,8,7,182
70.40551803571202,10,1,8,7,183
70.39257066127473,10,1,8,7,184
70.40168384056201,10,1,8,7,185
70.39257066127473,10,1,8,7,186
70.36179778668046,10,1,8,7,187
70.40168384056201,10,1,8,7,188
70.39257066127473,10,1,8,7,189
70.3526897704623,10,1,8,7,190
70.39505376430583,10,1,8,7,191
70.40551803571202,10,1,8,7,192
70.40168384056201,10,1,8,7,193
70.39257066127473,10,1,8,7,194
70.39257066127473,10,1,8,7,195
70.40416790815617,10,1,8,7,196
70.40551803571202,10,1,8,7,197
70.39257066127473,10,1,8,7,198
70.40168384056201,10,1,8,7,199
70.40168384056201,10,1,8,7,200
70.39505376430583,10,1,8,7,201
70.39257066127473,10,1,8,7,202
70.39257066127473,10,1,8,7,203
119.50399827822199,10,1,8,8,205
119.44868948174665,10,1,8,8,206
119.44868948174665,10,1,8,8,207
119.47968586552778,10,1,8,8,208
119.47968586552778,10,1,8,8,209
119.47968586552778,10,1,8,8,210
119.4885290266012,10,1,8,8,211
119.4885290266012,10,1,8,8,212
119.46836877358912,10,1,8,8,213
119.43984055959618,10,1,8,8,214
119.49274399312138,10,1,8,8,215
119.47968586552778,10,1,8,8,216
119.4885290266012,10,1,8,8,217
119.452903042924,10,1,8,8,218
119.44868948174665,10,1,8,8,219
119.46415357565107,10,1,8,8,220
119.47547135961774,10,1,8,8,221
119.4885290266012,10,1,8,8,222
119.45530459904371,10,1,8,8,223
119.4885290266012,10,1,8,8,224
119.49274399312138,10,1,8,8,225
119.452903042924,10,1,8,8,226
119.46415357565107,10,1,8,8,227
119.452903042924,10,1,8,8,228
119.49093892076381,10,1,8,8,229
119.44868948174665,10,1,8,8,230
119.44868948174665,10,1,8,8,231
119.4885290266012,10,1,8,8,232
119.44868948174665,10,1,8,8,233
119.452903042924,10,1,8,8,234
119.4885290266012,10,1,8,8,235
119.43984055959618,10,1,8,8,236
119.44868948174665,10,1,8,8,237
119.49274399312138,10,1,8,8,238
119.452903042924,10,1,8,8,239
119.44868948174665,10,1,8,8,240
119.43562745918264,10,1,8,8,241
119.43984055959618,10,1,8,8,242
119.43984055959618,10,1,8,8,243
119.44868948174665,10,1,8,8,244
119.44868948174665,10,1,8,8,245
119.43984055959618,10,1,8,8,246
119.43562745918264,10,1,8,8,247
119.43984055959618,10,1,8,8,248
119.4885290266012,10,1,8,8,249
119.44868948174665,10,1,8,8,250
119.49274399312138,10,1,8,8,251
119.452903042924,10,1,8,8,252
119.43562745918264,10,1,8,8,253
119.46415357565107,10,1,8,8,254
119.44868948174665,10,1,8,8,255
119.43984055959618,10,1,8,8,0
119.44868948174665,10,1,8,8,1
119.46836877358912,10,1,8,8,2
119.49274399312138,10,1,8,8,3
119.45530459904371,10,1,8,8,4
119.45108986204845,10,1,8,8,5
119.47968586552778,10,1,8,8,6
119.44868948174665,10,1,8,8,7
119.4885290266012,10,1,8,8,8
119.44868948174665,10,1,8,8,9
119.43984055959618,10,1,8,8,10
119.44868948174665,10,1,8,8,11
119.452903042924,10,1,8,8,12
119.43984055959618,10,1,8,8,13
119.44868948174665,10,1,8,8,14
119.44868948174665,10,1,8,8,15
119.44868948174665,10,1,8,8,16
119.43984055959618,10,1,8,8,17
119.452903042924,10,1,8,8,18
119.47547135961774,10,1,8,8,19
119.4885290266012,10,1,8,8,20
119.4885290266012,10,1,8,8,21
119.452903042924,10,1,8,8,22
119.44868948174665,10,1,8,8,23
119.43984055959618,10,1,8,8,24
119.47547135961774,10,1,8,8,25
119.46415357565107,10,1,8,8,26
119.44868948174665,10,1,8,8,27
119.4885290266012,10,1,8,8,28
119.452903042924,10,1,8,8,29
119.43562745918264,10,1,8,8,30
119.4885290266012,10,1,8,8,31
119.43562745918264,10,1,8,8,32
119.44868948174665,10,1,8,8,33
119.44868948174665,10,1,8,8,34
119.44868948174665,10,1,8,8,35
119.452903042924,10,1,8,8,36
119.46836877358912,10,1,8,8,37
119.4885290266012,10,1,8,8,38
119.46836877358912,10,1,8,8,39
119.452903042924,10,1,8,8,40
119.44868948174665,10,1,8,8,41
119.44868948174665,10,1,8,8,42
119.452903042924,10,1,8,8,43
119.44868948174665,10,1,8,8,44
119.43984055959618,10,1,8,8,45
119.44868948174665,10,1,8,8,46
119.4885290266012,10,1,8,8,47
119.44868948174665,10,1,8,8,48
119.46415357565107,10,1,8,8,49
119.43562745918264,10,1,8,8,50
119.45530459904371,10,1,8,8,51
119.44868948174665,10,1,8,8,52
119.44868948174665,10,1,8,8,53
119.44868948174665,10,1,8,8,54
119.44868948174665,10,1,8,8,55
119.43562745918264,10,1,8,8,56
119.44868948174665,10,1,8,8,57
119.41124223058698,10,1,8,8,58
119.452903042924,10,1,8,8,59
119.452903042924,10,1,8,8,60
119.452903042924,10,1,8,8,61
119.44868948174665,10,1,8,8,62
119.43562745918264,10,1,8,8,63
119.43984055959618,10,1,8,8,64
119.44868948174665,10,1,8,8,65
119.452903042924,10,1,8,8,66
119.44868948174665,10,1,8,8,67
119.452903042924,10,1,8,8,68
119.43984055959618,10,1,8,8,69
119.49274399312138,10,1,8,8,70
119.43984055959618,10,1,8,8,71
119.44868948174665,10,1,8,8,72
119.452903042924,10,1,8,8,73
119.43984055959618,10,1,8,8,74
119.452903042924,10,1,8,8,75
119.452903042924,10,1,8,8,76
119.43562745918264,10,1,8,8,77
119.44868948174665,10,1,8,8,78
119.46415357565107,10,1,8,8,79
119.43984055959618,10,1,8,8,80
119.44868948174665,10,1,8,8,81
119.43984055959618,10,1,8,8,82
119.43984055959618,10,1,8,8,83
119.4885290266012,10,1,8,8,84
119.44868948174665,10,1,8,8,85
119.452903042924,10,1,8,8,86
119.44868948174665,10,1,8,8,87
119.46415357565107,10,1,8,8,88
119.44868948174665,10,1,8,8,89
119.44868948174665,10,1,8,8,90
119.43984055959618,10,1,8,8,91
119.45108986204845,10,1,8,8,92
119.44868948174665,10,1,8,8,93
119.46415357565107,10,1,8,8,94
119.43984055959618,10,1,8,8,95
119.43984055959618,10,1,8,8,96
119.44868948174665,10,1,8,8,97
119.4885290266012,10,1,8,8,98
119.452903042924,10,1,8,8,99
119.44868948174665,10,1,8,8,100
119.43984055959618,10,1,8,8,101
119.44868948174665,10,1,8,8,102
119.43984055959618,10,1,8,8,103
119.45108986204845,10,1,8,8,104
119.44868948174665,10,1,8,8,105
119.452903042924,10,1,8,8,106
119.44868948174665,10,1,8,8,107
119.43984055959618,10,1,8,8,108
119.43984055959618,10,1,8,8,109
119.452903042924,10,1,8,8,110
119.44868948174665,10,1,8,8,111
119.452903042924,10,1,8,8,112
119.39999668078408,10,1,8,8,113
119.44868948174665,10,1,8,8,114
119.44868948174665,10,1,8,8,115
119.44868948174665,10,1,8,8,116
119.43562745918264,10,1,8,8,117
119.42431030308481,10,1,8,8,118
119.452903042924,10,1,8,8,119
119.44868948174665,10,1,8,8,120
119.43984055959618,10,1,8,8,121
119.452903042924,10,1,8,8,122
119.43984055959618,10,1,8,8,123
119.43562745918264,10,1,8,8,124
119.452903042924,10,1,8,8,125
119.40885136671169,10,1,8,8,126
119.44868948174665,10,1,8,8,127
119.43984055959618,10,1,8,8,128
119.43984055959618,10,1,8,8,129
119.44868948174665,10,1,8,8,130
119.46415357565107,10,1,8,8,131
119.46415357565107,10,1,8,8,132
119.43984055959618,10,1,8,8,133
119.43984055959618,10,1,8,8,134
119.46415357565107,10,1,8,8,135
119.43984055959618,10,1,8,8,136
119.42431030308481,10,1,8,8,137
119.46836877358912,10,1,8,8,138
119.43984055959618,10,1,8,8,139
119.46415357565107,10,1,8,8,140
119.44868948174665,10,1,8,8,141
119.39999668078408,10,1,8,8,142
119.43562745918264,10,1,8,8,143
119.41306352259663,10,1,8,8,144
119.44868948174665,10,1,8,8,145
119.44868948174665,10,1,8,8,146
119.43984055959618,10,1,8,8,147
41.361790696419945,10,2,3,1,149
41.37906270655262,10,2,3,1,150
41.3751764135047,10,2,3,1,151
41.373719521187745,10,2,3,1,152
41.335556507878906,10,2,3,1,153
41.3751764135047,10,2,3,1,154
41.3751764135047,10,2,3,1,155
41.3751764135047,10,2,3,1,156
41.342350614906586,10,2,3,1,157
41.34089514073464,10,2,3,1,158
41.34089514073464,10,2,3,1,159
41.37663271838722,10,2,3,1,160
41.38860007384662,10,2,3,1,161
41.38052016341093,10,2,3,1,162
41.39394555746592,10,2,3,1,163
41.3751764135047,10,2,3,1,164
41.3543333987771,10,2,3,1,165
41.38197703264694,10,2,3,1,166
41.38197703264694,10,2,3,1,167
41.38197703264694,10,2,3,1,168
41.39394555746592,10,2,3,1,169
41.38197703264694,10,2,3,1,170
41.39540289936499,10,2,3,1,171
41.38197703264694,10,2,3,1,172
41.38052016341093,10,2,3,1,173
41.39005685120911,10,2,3,1,174
41.38197703264694,10,2,3,1,175
41.38197703264694,10,2,3,1,176
41.38197703264694,10,2,3,1,177
41.38197703264694,10,2,3,1,178
41.39540289936499,10,2,3,1,179
41.38197703264694,10,2,3,1,180
41.38197703264694,10,2,3,1,181
41.38197703264694,10,2,3,1,182
41.39540289936499,10,2,3,1,183
41.39540289936499,10,2,3,1,184
41.38197703264694,10,2,3,1,185
41.38197703264694,10,2,3,1,186
41.3751764135047,10,2,3,1,187
41.39540289936499,10,2,3,1,188
41.38197703264694,10,2,3,1,189
41.37663271838722,10,2,3,1,190
41.38197703264694,10,2,3,1,191
41.38052016341093,10,2,3,1,192
41.38197703264694,10,2,3,1,193
41.37663271838722,10,2,3,1,194
41.38197703264694,10,2,3,1,195
41.39540289936499,10,2,3,1,196
41.38197703264694,10,2,3,1,197
41.37663271838722,10,2,3,1,198
41.38197703264694,10,2,3,1,199
41.38197703264694,10,2,3,1,200
41.38197703264694,10,2,3,1,201
41.39005685120911,10,2,3,1,202
41.38197703264694,10,2,3,1,203
41.342350614906586,10,2,3,1,204
41.342350614906586,10,2,3,1,205
41.37663271838722,10,2,3,1,206
41.38197703264694,10,2,3,1,207
41.37663271838722,10,2,3,1,208
41.39005685120911,10,2,3,1,209
41.37663271838722,10,2,3,1,210
41.37663271838722,10,2,3,1,211
41.33701141823778,10,2,3,1,212
41.37663271838722,10,2,3,1,213
41.38197703264694,10,2,3,1,214
41.39540289936499,10,2,3,1,215
41.39540289936499,10,2,3,1,216
41.39540289936499,10,2,3,1,217
41.38197703264694,10,2,3,1,218
41.38197703264694,10,2,3,1,219
41.35578934606501,10,2,3,1,220
41.38197703264694,10,2,3,1,221
41.37663271838722,10,2,3,1,222
41.35578934606501,10,2,3,1,223
41.37663271838722,10,2,3,1,224
41.3751764135047,10,2,3,1,225
41.39394555746592,10,2,3,1,226
41.342350614906586,10,2,3,1,227
41.39540289936499,10,2,3,1,228
41.39005685120911,10,2,3,1,229
41.35578934606501,10,2,3,1,230
41.35578934606501,10,2,3,1,231
41.38197703264694,10,2,3,1,232
41.39540289936499,10,2,3,1,233
41.39005685120911,10,2,3,1,234
41.35578934606501,10,2,3,1,235
41.35578934606501,10,2,3,1,236
41.35044841383864,10,2,3,1,237
41.342350614906586,10,2,3,1,238
41.342350614906586,10,2,3,1,239
41.37663271838722,10,2,3,1,240
41.39540289936499,10,2,3,1,241
41.33701141823778,10,2,3,1,242
41.35578934606501,10,2,3,1,243
41.33701141823778,10,2,3,1,244
41.37663271838722,10,2,3,1,245
41.38197703264694,10,2,3,1,246
41.37663271838722,10,2,3,1,247
94.69622485555053,10,2,3,3,249
94.65656354215744,10,2,3,3,250
94.67069824871207,10,2,3,3,251
94.65656354215744,10,2,3,3,252
94.69622485555053,10,2,3,3,253
94.69622485555053,10,2,3,3,254
94.68399522272179,10,2,3,3,255
94.65656354215744,10,2,3,3,0
94.65656354215744,10,2,3,3,1
94.68399522272179,10,2,3,3,2
94.67069824871207,10,2,3,3,3
94.69622485555053,10,2,3,3,4
94.68399522272179,10,2,3,3,5
94.69622485555053,10,2,3,3,6
94.69622485555053,10,2,3,3,7
94.68292616406885,10,2,3,3,8
94.68399522272179,10,2,3,3,9
94.69622485555053,10,2,3,3,10
94.68399522272179,10,2,3,3,11
94.69622485555053,10,2,3,3,12
94.69622485555053,10,2,3,3,13
94.68292616406885,10,2,3,3,14
94.68399522272179,10,2,3,3,15
94.67069824871207,10,2,3,3,16
94.68292616406885,10,2,3,3,17
94.68399522272179,10,2,3,3,18
94.68399522272179,10,2,3,3,19
94.68399522272179,10,2,3,3,20
94.67069824871207,10,2,3,3,21
94.69622485555053,10,2,3,3,22
94.69622485555053,10,2,3,3,23
94.68399522272179,10,2,3,3,24
94.69622485555053,10,2,3,3,25
94.69622485555053,10,2,3,3,26
94.69622485555053,10,2,3,3,27
94.68399522272179,10,2,3,3,28
94.71036187754683,10,2,3,3,29
94.67069824871207,10,2,3,3,30
94.68292616406885,10,2,3,3,31
94.68399522272179,10,2,3,3,32
94.69622485555053,10,2,3,3,33
94.68399522272179,10,2,3,3,34
94.72365328371568,10,2,3,3,35
94.68399522272179,10,2,3,3,36
94.72365328371568,10,2,3,3,37
94.72365328371568,10,2,3,3,38
94.68399522272179,10,2,3,3,39
94.68399522272179,10,2,3,3,40
94.68399522272179,10,2,3,3,41
94.69622485555053,10,2,3,3,42
94.72365328371568,10,2,3,3,43
94.68399522272179,10,2,3,3,44
94.69622485555053,10,2,3,3,45
94.69622485555053,10,2,3,3,46
94.68292616406885,10,2,3,3,47
94.73588803888347,10,2,3,3,48
94.72365328371568,10,2,3,3,49
94.73588803888347,10,2,3,3,50
94.72365328371568,10,2,3,3,51
94.68399522272179,10,2,3,3,52
94.69622485555053,10,2,3,3,53
94.72365328371568,10,2,3,3,54
94.67069824871207,10,2,3,3,55
94.72365328371568,10,2,3,3,56
94.73588803888347,10,2,3,3,57
94.72365328371568,10,2,3,3,58
94.69622485555053,10,2,3,3,59
94.71036187754683,10,2,3,3,60
94.69622485555053,10,2,3,3,61
94.72365328371568,10,2,3,3,62
94.72365328371568,10,2,3,3,63
94.72365328371568,10,2,3,3,64
94.69622485555053,10,2,3,3,65
94.69622485555053,10,2,3,3,66
94.71036187754683,10,2,3,3,67
94.72365328371568,10,2,3,3,68
94.73588803888347,10,2,3,3,69
94.72365328371568,10,2,3,3,70
94.72365328371568,10,2,3,3,71
94.72365328371568,10,2,3,3,72
94.73588803888347,10,2,3,3,73
94.73588803888347,10,2,3,3,74
94.72365328371568,10,2,3,3,75
94.73588803888347,10,2,3,3,76
94.73588803888347,10,2,3,3,77
94.73588803888347,10,2,3,3,78
94.73588803888347,10,2,3,3,79
94.73588803888347,10,2,3,3,80
94.72698586169734,10,2,3,3,81
94.73588803888347,10,2,3,3,82
94.73588803888347,10,2,3,3,83
94.72365328371568,10,2,3,3,84
94.73588803888347,10,2,3,3,85
94.73588803888347,10,2,3,3,86
94.72365328371568,10,2,3,3,87
94.73588803888347,10,2,3,3,88
94.72365328371568,10,2,3,3,89
94.73588803888347,10,2,3,3,90
94.73588803888347,10,2,3,3,91
52.247541537747274,10,2,3,4,93
52.249380523255894,10,2,3,4,94
52.254289491940945,10,2,3,4,95
52.249380523255894,10,2,3,4,96
52.26937365754739,10,2,3,4,97
52.262623280233036,10,2,3,4,98
52.249380523255894,10,2,3,4,99
52.26937365754739,10,2,3,4,100
52.29581906282261,10,2,3,4,101
52.2607838286282,10,2,3,4,102
52.29581906282261,10,2,3,4,103
52.249380523255894,10,2,3,4,104
52.249380523255894,10,2,3,4,105
52.29581906282261,10,2,3,4,106
52.26937365754739,10,2,3,4,107
52.25612919010108,10,2,3,4,108
52.262623280233036,10,2,3,4,109
52.26937365754739,10,2,3,4,110
52.25612919010108,10,2,3,4,111
52.249380523255894,10,2,3,4,112
52.216442666596556,10,2,3,4,113
52.249380523255894,10,2,3,4,114
52.26937365754739,10,2,3,4,115
52.25612919010108,10,2,3,4,116
52.25612919010108,10,2,3,4,117
52.26937365754739,10,2,3,4,118
52.247541537747274,10,2,3,4,119
52.249380523255894,10,2,3,4,120
52.262623280233036,10,2,3,4,121
52.26937365754739,10,2,3,4,122
52.2607838286282,10,2,3,4,123
52.26937365754739,10,2,3,4,124
52.249380523255894,10,2,3,4,125
52.249380523255894,10,2,3,4,126
52.28906527019157,10,2,3,4,127
52.30229797913203,10,2,3,4,128
52.29581906282261,10,2,3,4,129
52.25612919010108,10,2,3,4,130
52.28906527019157,10,2,3,4,131
52.30905348093441,10,2,3,4,132
52.29581906282261,10,2,3,4,133
52.25612919010108,10,2,3,4,134
52.25612919010108,10,2,3,4,135
52.262623280233036,10,2,3,4,136
52.26937365754739,10,2,3,4,137
52.29581906282261,10,2,3,4,138
52.26937365754739,10,2,3,4,139
52.28906527019157,10,2,3,4,140
52.30905348093441,10,2,3,4,141
52.28906527019157,10,2,3,4,142
52.25612919010108,10,2,3,4,143
52.30905348093441,10,2,3,4,144
52.29581906282261,10,2,3,4,145
52.29581906282261,10,2,3,4,146
52.307211919553225,10,2,3,4,147
52.29581906282261,10,2,3,4,148
52.26937365754739,10,2,3,4,149
52.25612919010108,10,2,3,4,150
52.28906527019157,10,2,3,4,151
52.30229797913203,10,2,3,4,152
52.29581906282261,10,2,3,4,153
52.28906527019157,10,2,3,4,154
52.3004571311241,10,2,3,4,155
52.267533493110435,10,2,3,4,156
52.29581906282261,10,2,3,4,157
52.25612919010108,10,2,3,4,158
52.25612919010108,10,2,3,4,159
52.29581906282261,10,2,3,4,160
52.25612919010108,10,2,3,4,161
52.28906527019157,10,2,3,4,162
52.249380523255894,10,2,3,4,163
52.25612919010108,10,2,3,4,164
52.25612919010108,10,2,3,4,165
52.29581906282261,10,2,3,4,166
52.29581906282261,10,2,3,4,167
52.28906527019157,10,2,3,4,168
52.25612919010108,10,2,3,4,169
52.25612919010108,10,2,3,4,170
52.28906527019157,10,2,3,4,171
52.29581906282261,10,2,3,4,172
52.29581906282261,10,2,3,4,173
52.29581906282261,10,2,3,4,174
52.26937365754739,10,2,3,4,175
52.28906527019157,10,2,3,4,176
52.29581906282261,10,2,3,4,177
52.29581906282261,10,2,3,4,178
52.28906527019157,10,2,3,4,179
52.30229797913203,10,2,3,4,180
52.29581906282261,10,2,3,4,181
52.25612919010108,10,2,3,4,182
52.25612919010108,10,2,3,4,183
52.29581906282261,10,2,3,4,184
52.29581906282261,10,2,3,4,185
52.29581906282261,10,2,3,4,186
52.29581906282261,10,2,3,4,187
52.29581906282261,10,2,3,4,188
52.29581906282261,10,2,3,4,189
52.29581906282261,10,2,3,4,190
52.29581906282261,10,2,3,4,191
49.23812096288703,10,2,3,5,193
49.23349534465994,10,2,3,5,194
49.239854471875944,10,2,3,5,195
49.23349534465994,10,2,3,5,196
49.23349534465994,10,2,3,5,197
49.239854471875944,10,2,3,5,198
49.22032631640386,10,2,3,5,199
49.23812096288703,10,2,3,5,200
49.23349534465994,10,2,3,5,201
49.239854471875944,10,2,3,5,202
49.239854471875944,10,2,3,5,203
49.239854471875944,10,2,3,5,204
49.23812096288703,10,2,3,5,205
49.239854471875944,10,2,3,5,206
49.239854471875944,10,2,3,5,207
49.239854471875944,10,2,3,5,208
49.239854471875944,10,2,3,5,209
49.239854471875944,10,2,3,5,210
49.239854471875944,10,2,3,5,211
49.239854471875944,10,2,3,5,212
49.239854471875944,10,2,3,5,213
49.239854471875944,10,2,3,5,214
49.239854471875944,10,2,3,5,215
49.23349534465994,10,2,3,5,216
49.239854471875944,10,2,3,5,217
49.23349534465994,10,2,3,5,218
49.23349534465994,10,2,3,5,219
49.23349534465994,10,2,3,5,220
49.23349534465994,10,2,3,5,221
49.239854471875944,10,2,3,5,222
49.239854471875944,10,2,3,5,223
49.239854471875944,10,2,3,5,224
49.22668374267369,10,2,3,5,225
49.23349534465994,10,2,3,5,226
49.239854471875944,10,2,3,5,227
49.23812096288703,10,2,3,5,228
49.22032631640386,10,2,3,5,229
49.23349534465994,10,2,3,5,230
49.23349534465994,10,2,3,5,231
49.231762507187604,10,2,3,5,232
49.23349534465994,10,2,3,5,233
49.239854471875944,10,2,3,5,234
49.239854471875944,10,2,3,5,235
49.231762507187604,10,2,3,5,236
49.23349534465994,10,2,3,5,237
49.22032631640386,10,2,3,5,238
49.239854471875944,10,2,3,5,239
49.239854471875944,10,2,3,5,240
49.239854471875944,10,2,3,5,241
49.22668374267369,10,2,3,5,242
49.23349534465994,10,2,3,5,243
49.22032631640386,10,2,3,5,244
49.231762507187604,10,2,3,5,245
49.23349534465994,10,2,3,5,246
49.239854471875944,10,2,3,5,247
49.239854471875944,10,2,3,5,248
49.23349534465994,10,2,3,5,249
49.239854471875944,10,2,3,5,250
49.25132323956013,10,2,3,5,251
49.239854471875944,10,2,3,5,252
49.239854471875944,10,2,3,5,253
49.23349534465994,10,2,3,5,254
49.23349534465994,10,2,3,5,255
49.24669638106046,10,2,3,5,0
49.239854471875944,10,2,3,5,1
49.239854471875944,10,2,3,5,2
49.239854471875944,10,2,3,5,3
49.239854471875944,10,2,3,5,4
49.239854471875944,10,2,3,5,5
49.239854471875944,10,2,3,5,6
49.22032631640386,10,2,3,5,7
49.23349534465994,10,2,3,5,8
49.23812096288703,10,2,3,5,9
49.23812096288703,10,2,3,5,10
49.23349534465994,10,2,3,5,11
49.23349534465994,10,2,3,5,12
49.239854471875944,10,2,3,5,13
49.279558630173604,10,2,3,5,14
49.23349534465994,10,2,3,5,15
49.239854471875944,10,2,3,5,16
49.239854471875944,10,2,3,5,17
49.239854471875944,10,2,3,5,18
49.231762507187604,10,2,3,5,19
49.239854471875944,10,2,3,5,20
49.239854471875944,10,2,3,5,21
49.239854471875944,10,2,3,5,22
49.23349534465994,10,2,3,5,23
49.239854471875944,10,2,3,5,24
49.239854471875944,10,2,3,5,25
49.23349534465994,10,2,3,5,26
49.239854471875944,10,2,3,5,27
49.239854471875944,10,2,3,5,28
49.27319437532682,10,2,3,5,29
49.239854471875944,10,2,3,5,30
49.239854471875944,10,2,3,5,31
49.239854471875944,10,2,3,5,32
49.23349534465994,10,2,3,5,33
49.239854471875944,10,2,3,5,34
49.23349534465994,10,2,3,5,35
48.15501525366277,10,2,3,6,37
48.13558489516002,10,2,3,6,38
48.15501525366277,10,2,3,6,39
48.141802213386605,10,2,3,6,40
48.148796229025685,10,2,3,6,41
48.15501525366277,10,2,3,6,42
48.15501525366277,10,2,3,6,43
48.141802213386605,10,2,3,6,44
48.141802213386605,10,2,3,6,45
48.141802213386605,10,2,3,6,46
48.15501525366277,10,2,3,6,47
48.141802213386605,10,2,3,6,48
48.141802213386605,10,2,3,6,49
48.15501525366277,10,2,3,6,50
48.141802213386605,10,2,3,6,51
48.15501525366277,10,2,3,6,52
48.141802213386605,10,2,3,6,53
48.15501525366277,10,2,3,6,54
48.15501525366277,10,2,3,6,55
48.113634953391575,10,2,3,6,56
48.141802213386605,10,2,3,6,57
48.148796229025685,10,2,3,6,58
48.15501525366277,10,2,3,6,59
48.13558489516002,10,2,3,6,60
48.15501525366277,10,2,3,6,61
48.15501525366277,10,2,3,6,62
48.148796229025685,10,2,3,6,63
48.148796229025685,10,2,3,6,64
48.141802213386605,10,2,3,6,65
48.148796229025685,10,2,3,6,66
48.15501525366277,10,2,3,6,67
48.148796229025685,10,2,3,6,68
48.11532887300204,10,2,3,6,69
48.10210493137994,10,2,3,6,70
48.141802213386605,10,2,3,6,71
48.13558489516002,10,2,3,6,72
48.13558489516002,10,2,3,6,73
48.141802213386605,10,2,3,6,74
48.11532887300204,10,2,3,6,75
48.153319936877224,10,2,3,6,76
48.141802213386605,10,2,3,6,77
48.148796229025685,10,2,3,6,78
48.148796229025685,10,2,3,6,79
48.13558489516002,10,2,3,6,80
48.13558489516002,10,2,3,6,81
48.15501525366277,10,2,3,6,82
48.10210493137994,10,2,3,6,83
48.148796229025685,10,2,3,6,84
48.13558489516002,10,2,3,6,85
48.10210493137994,10,2,3,6,86
48.148796229025685,10,2,3,6,87
48.148796229025685,10,2,3,6,88
48.13558489516002,10,2,3,6,89
48.13558489516002,10,2,3,6,90
48.141802213386605,10,2,3,6,91
48.141802213386605,10,2,3,6,92
48.15501525366277,10,2,3,6,93
48.141802213386605,10,2,3,6,94
48.148796229025685,10,2,3,6,95
48.15501525366277,10,2,3,6,96
48.15501525366277,10,2,3,6,97
48.141802213386605,10,2,3,6,98
48.13558489516002,10,2,3,6,99
48.141802213386605,10,2,3,6,100
48.148796229025685,10,2,3,6,101
48.11532887300204,10,2,3,6,102
48.13558489516002,10,2,3,6,103
48.148796229025685,10,2,3,6,104
48.09589273989609,10,2,3,6,105
48.148796229025685,10,2,3,6,106
48.14710156896204,10,2,3,6,107
48.15501525366277,10,2,3,6,108
48.11532887300204,10,2,3,6,109
48.10210493137994,10,2,3,6,110
48.141802213386605,10,2,3,6,111
48.148796229025685,10,2,3,6,112
48.100411477323696,10,2,3,6,113
48.148796229025685,10,2,3,6,114
48.148796229025685,10,2,3,6,115
48.141802213386605,10,2,3,6,116
48.15501525366277,10,2,3,6,117
48.10210493137994,10,2,3,6,118
48.13558489516002,10,2,3,6,119
48.153319936877224,10,2,3,6,120
48.11532887300204,10,2,3,6,121
48.11532887300204,10,2,3,6,122
48.13558489516002,10,2,3,6,123
48.10210493137994,10,2,3,6,124
48.13558489516002,10,2,3,6,125
48.11532887300204,10,2,3,6,126
48.11532887300204,10,2,3,6,127
48.11532887300204,10,2,3,6,128
48.10210493137994,10,2,3,6,129
48.10210493137994,10,2,3,6,130
48.15501525366277,10,2,3,6,131
48.10210493137994,10,2,3,6,132
48.15501525366277,10,2,3,6,133
48.11532887300204,10,2,3,6,134
48.10210493137994,10,2,3,6,135
47.54647022503038,10,2,3,7,137
47.53323530429585,10,2,3,7,138
47.54647022503038,10,2,3,7,139
47.54647022503038,10,2,3,7,140
47.54647022503038,10,2,3,7,141
47.52709658001386,10,2,3,7,142
47.55806390235276,10,2,3,7,143
47.52542380148515,10,2,3,7,144
47.54032979151212,10,2,3,7,145
47.54032979151212,10,2,3,7,146
47.54647022503038,10,2,3,7,147
47.54647022503038,10,2,3,7,148
47.54647022503038,10,2,3,7,149
47.54647022503038,10,2,3,7,150
47.54647022503038,10,2,3,7,151
47.52709658001386,10,2,3,7,152
47.54647022503038,10,2,3,7,153
47.54647022503038,10,2,3,7,154
47.54647022503038,10,2,3,7,155
47.54032979151212,10,2,3,7,156
47.53323530429585,10,2,3,7,157
47.54647022503038,10,2,3,7,158
47.54647022503038,10,2,3,7,159
47.50065593276321,10,2,3,7,160
47.54647022503038,10,2,3,7,161
47.54647022503038,10,2,3,7,162
47.54032979151212,10,2,3,7,163
47.54647022503038,10,2,3,7,164
47.50679124190195,10,2,3,7,165
47.54647022503038,10,2,3,7,166
47.54647022503038,10,2,3,7,167
47.52709658001386,10,2,3,7,168
47.54032979151212,10,2,3,7,169
47.54647022503038,10,2,3,7,170
47.54647022503038,10,2,3,7,171
47.53865654722316,10,2,3,7,172
47.50679124190195,10,2,3,7,173
47.54032979151212,10,2,3,7,174
47.53323530429585,10,2,3,7,175
47.54032979151212,10,2,3,7,176
47.53323530429585,10,2,3,7,177
47.54647022503038,10,2,3,7,178
47.50679124190195,10,2,3,7,179
47.54032979151212,10,2,3,7,180
47.54032979151212,10,2,3,7,181
47.54647022503038,10,2,3,7,182
47.52709658001386,10,2,3,7,183
47.54647022503038,10,2,3,7,184
47.54032979151212,10,2,3,7,185
47.50679124190195,10,2,3,7,186
47.54647022503038,10,2,3,7,187
47.54647022503038,10,2,3,7,188
47.52709658001386,10,2,3,7,189
47.52709658001386,10,2,3,7,190
47.54647022503038,10,2,3,7,191
47.54032979151212,10,2,3,7,192
47.54647022503038,10,2,3,7,193
47.52709658001386,10,2,3,7,194
47.54032979151212,10,2,3,7,195
47.54032979151212,10,2,3,7,196
47.54032979151212,10,2,3,7,197
47.54647022503038,10,2,3,7,198
47.53865654722316,10,2,3,7,199
47.50679124190195,10,2,3,7,200
47.53323530429585,10,2,3,7,201
47.54032979151212,10,2,3,7,202
47.53323530429585,10,2,3,7,203
47.49354526391464,10,2,3,7,204
47.50679124190195,10,2,3,7,205
47.54647022503038,10,2,3,7,206
47.52709658001386,10,2,3,7,207
47.54647022503038,10,2,3,7,208
47.54032979151212,10,2,3,7,209
47.54032979151212,10,2,3,7,210
47.54647022503038,10,2,3,7,211
47.50679124190195,10,2,3,7,212
47.54647022503038,10,2,3,7,213
47.52709658001386,10,2,3,7,214
47.52709658001386,10,2,3,7,215
47.54647022503038,10,2,3,7,216
47.54647022503038,10,2,3,7,217
47.50679124190195,10,2,3,7,218
47.54032979151212,10,2,3,7,219
47.52709658001386,10,2,3,7,220
47.54647022503038,10,2,3,7,221
47.49354526391464,10,2,3,7,222
47.54647022503038,10,2,3,7,223
47.54647022503038,10,2,3,7,224
47.50065593276321,10,2,3,7,225
47.54647022503038,10,2,3,7,226
47.54032979151212,10,2,3,7,227
47.54032979151212,10,2,3,7,228
47.53323530429585,10,2,3,7,229
47.52709658001386,10,2,3,7,230
47.50679124190195,10,2,3,7,231
47.54647022503038,10,2,3,7,232
47.50679124190195,10,2,3,7,233
47.50065593276321,10,2,3,7,234
47.50679124190195,10,2,3,7,235
47.108250864306775,10,2,3,8,237
47.10382533425845,10,2,3,8,238
47.10990938771767,10,2,3,8,239
47.10990938771767,10,2,3,8,240
47.14958829315066,10,2,3,8,241
47.10382533425845,10,2,3,8,242
47.108250864306775,10,2,3,8,243
47.10990938771767,10,2,3,8,244
47.10990938771767,10,2,3,8,245
47.10990938771767,10,2,3,8,246
47.10990938771767,10,2,3,8,247
47.14958829315066,10,2,3,8,248
47.108250864306775,10,2,3,8,249
47.10382533425845,10,2,3,8,250
47.10990938771767,10,2,3,8,251
47.10990938771767,10,2,3,8,252
47.14349911532196,10,2,3,8,253
47.14349911532196,10,2,3,8,254
47.10382533425845,10,2,3,8,255
47.10990938771767,10,2,3,8,0
47.10382533425845,10,2,3,8,1
47.10990938771767,10,2,3,8,2
47.10382533425845,10,2,3,8,3
47.10382533425845,10,2,3,8,4
47.10382533425845,10,2,3,8,5
47.10382533425845,10,2,3,8,6
47.14349911532196,10,2,3,8,7
47.102167453316646,10,2,3,8,8
47.10990938771767,10,2,3,8,9
47.10990938771767,10,2,3,8,10
47.14349911532196,10,2,3,8,11
47.09666327006578,10,2,3,8,12
47.10382533425845,10,2,3,8,13
47.10382533425845,10,2,3,8,14
47.10990938771767,10,2,3,8,15
47.10382533425845,10,2,3,8,16
47.12318892227429,10,2,3,8,17
47.090580927288855,10,2,3,8,18
47.108250864306775,10,2,3,8,19
47.10382533425845,10,2,3,8,20
47.10382533425845,10,2,3,8,21
47.108250864306775,10,2,3,8,22
47.10382533425845,10,2,3,8,23
47.090580927288855,10,2,3,8,24
47.10382533425845,10,2,3,8,25
47.10990938771767,10,2,3,8,26
47.10990938771767,10,2,3,8,27
47.108250864306775,10,2,3,8,28
47.10990938771767,10,2,3,8,29
47.14958829315066,10,2,3,8,30
47.10990938771767,10,2,3,8,31
47.108250864306775,10,2,3,8,32
47.14958829315066,10,2,3,8,33
47.10990938771767,10,2,3,8,34
47.10990938771767,10,2,3,8,35
47.14349911532196,10,2,3,8,36
47.09666327006578,10,2,3,8,37
47.09832065813453,10,2,3,8,38
47.10990938771767,10,2,3,8,39
47.10990938771767,10,2,3,8,40
47.10990938771767,10,2,3,8,41
47.10990938771767,10,2,3,8,42
47.10990938771767,10,2,3,8,43
47.14183983800937,10,2,3,8,44
47.10382533425845,10,2,3,8,45
47.14349911532196,10,2,3,8,46
47.10990938771767,10,2,3,8,47
47.10990938771767,10,2,3,8,48
47.10990938771767,10,2,3,8,49
47.10990938771767,10,2,3,8,50
47.09666327006578,10,2,3,8,51
47.10990938771767,10,2,3,8,52
47.10990938771767,10,2,3,8,53
47.10990938771767,10,2,3,8,54
47.108250864306775,10,2,3,8,55
47.10990938771767,10,2,3,8,56
47.10382533425845,10,2,3,8,57
47.108250864306775,10,2,3,8,58
47.10382533425845,10,2,3,8,59
47.10382533425845,10,2,3,8,60
47.07023421616583,10,2,3,8,61
47.10382533425845,10,2,3,8,62
47.10382533425845,10,2,3,8,63
47.10382533425845,10,2,3,8,64
47.10990938771767,10,2,3,8,65
47.10382533425845,10,2,3,8,66
47.10382533425845,10,2,3,8,67
47.10990938771767,10,2,3,8,68
47.10990938771767,10,2,3,8,69
47.10382533425845,10,2,3,8,70
47.10990938771767,10,2,3,8,71
47.10382533425845,10,2,3,8,72
47.10990938771767,10,2,3,8,73
47.10990938771767,10,2,3,8,74
47.108250864306775,10,2,3,8,75
47.10382533425845,10,2,3,8,76
47.10990938771767,10,2,3,8,77
47.10990938771767,10,2,3,8,78
47.10990938771767,10,2,3,8,79
47.10382533425845,10,2,3,8,80
47.10382533425845,10,2,3,8,81
47.10990938771767,10,2,3,8,82
47.10382533425845,10,2,3,8,83
47.10382533425845,10,2,3,8,84
47.10382533425845,10,2,3,8,85
47.10990938771767,10,2,3,8,86
47.10990938771767,10,2,3,8,87
47.10382533425845,10,2,3,8,88
47.10990938771767,10,2,3,8,89
47.10990938771767,10,2,3,8,90
47.108250864306775,10,2,3,8,91
47.10990938771767,10,2,3,8,92
47.10990938771767,10,2,3,8,93
47.10990938771767,10,2,3,8,94
47.10990938771767,10,2,3,8,95
47.10990938771767,10,2,3,8,96
47.10990938771767,10,2,3,8,97
47.10382533425845,10,2,3,8,98
47.10990938771767,10,2,3,8,99
47.10990938771767,10,2,3,8,100
47.10382533425845,10,2,3,8,101
47.09666327006578,10,2,3,8,102
47.10990938771767,10,2,3,8,103
47.10990938771767,10,2,3,8,104
47.10990938771767,10,2,3,8,105
47.10382533425845,10,2,3,8,106
47.10990938771767,10,2,3,8,107
47.10382533425845,10,2,3,8,108
47.10382533425845,10,2,3,8,109
47.10382533425845,10,2,3,8,110
47.108250864306775,10,2,3,8,111
47.10990938771767,10,2,3,8,112
47.10990938771767,10,2,3,8,113
47.10382533425845,10,2,3,8,114
47.10990938771767,10,2,3,8,115
47.10990938771767,10,2,3,8,116
47.10382533425845,10,2,3,8,117
47.10990938771767,10,2,3,8,118
47.10990938771767,10,2,3,8,119
47.10990938771767,10,2,3,8,120
47.14958829315066,10,2,3,8,121
47.10990938771767,10,2,3,8,122
47.10990938771767,10,2,3,8,123
47.10382533425845,10,2,3,8,124
47.10990938771767,10,2,3,8,125
47.12318892227429,10,2,3,8,126
47.10382533425845,10,2,3,8,127
47.10990938771767,10,2,3,8,128
47.10990938771767,10,2,3,8,129
47.10382533425845,10,2,3,8,130
47.10990938771767,10,2,3,8,131
47.10990938771767,10,2,3,8,132
47.10990938771767,10,2,3,8,133
47.09666327006578,10,2,3,8,134
47.14958829315066,10,2,3,8,135
47.10990938771767,10,2,3,8,136
47.14349911532196,10,2,3,8,137
47.10382533425845,10,2,3,8,138
47.10990938771767,10,2,3,8,139
47.10382533425845,10,2,3,8,140
47.10990938771767,10,2,3,8,141
47.10382533425845,10,2,3,8,142
47.10990938771767,10,2,3,8,143
47.10990938771767,10,2,3,8,144
47.10382533425845,10,2,3,8,145
47.10990938771767,10,2,3,8,146
47.090580927288855,10,2,3,8,147
47.14349911532196,10,2,3,8,148
47.10382533425845,10,2,3,8,149
47.14183983800937,10,2,3,8,150
47.10990938771767,10,2,3,8,151
47.10990938771767,10,2,3,8,152
47.10990938771767,10,2,3,8,153
47.10382533425845,10,2,3,8,154
47.10990938771767,10,2,3,8,155
47.102167453316646,10,2,3,8,156
47.10382533425845,10,2,3,8,157
47.10990938771767,10,2,3,8,158
47.10382533425845,10,2,3,8,159
47.10990938771767,10,2,3,8,160
47.14349911532196,10,2,3,8,161
47.11710315381712,10,2,3,8,162
47.10382533425845,10,2,3,8,163
47.108250864306775,10,2,3,8,164
47.10382533425845,10,2,3,8,165
47.10382533425845,10,2,3,8,166
47.09666327006578,10,2,3,8,167
47.090580927288855,10,2,3,8,168
47.10990938771767,10,2,3,8,169
47.14183983800937,10,2,3,8,170
47.10990938771767,10,2,3,8,171
47.090580927288855,10,2,3,8,172
47.15676576402878,10,2,3,8,173
47.10990938771767,10,2,3,8,174
47.14958829315066,10,2,3,8,175
47.14349911532196,10,2,3,8,176
47.10990938771767,10,2,3,8,177
47.102167453316646,10,2,3,8,178
47.14349911532196,10,2,3,8,179
43.991008382158455,10,2,4,1,181
44.044033255350314,10,2,4,1,182
44.0455846613202,10,2,4,1,183
44.044033255350314,10,2,4,1,184
44.044033255350314,10,2,4,1,185
44.0455846613202,10,2,4,1,186
44.08373022111786,10,2,4,1,187
44.051280355490334,10,2,4,1,188
44.08528302537272,10,2,4,1,189
44.0630857778566,10,2,4,1,190
44.0455846613202,10,2,4,1,191
44.09098385308217,10,2,4,1,192
44.09098385308217,10,2,4,1,193
44.09098385308217,10,2,4,1,194
44.05894083505504,10,2,4,1,195
44.10432972893527,10,2,4,1,196
44.06463825636039,10,2,4,1,197
44.10432972893527,10,2,4,1,198
44.08528302537272,10,2,4,1,199
44.0986271756454,10,2,4,1,200
44.0986271756454,10,2,4,1,201
44.0986271756454,10,2,4,1,202
44.10432972893527,10,2,4,1,203
44.06463825636039,10,2,4,1,204
44.10432972893527,10,2,4,1,205
44.0986271756454,10,2,4,1,206
44.09098385308217,10,2,4,1,207
44.10432972893527,10,2,4,1,208
44.10432972893527,10,2,4,1,209
44.10432972893527,10,2,4,1,210
44.10432972893527,10,2,4,1,211
44.10432972893527,10,2,4,1,212
44.0986271756454,10,2,4,1,213
44.10432972893527,10,2,4,1,214
44.10432972893527,10,2,4,1,215
44.06463825636039,10,2,4,1,216
44.0986271756454,10,2,4,1,217
44.10432972893527,10,2,4,1,218
44.10432972893527,10,2,4,1,219
44.0986271756454,10,2,4,1,220
44.0986271756454,10,2,4,1,221
44.0986271756454,10,2,4,1,222
44.0986271756454,10,2,4,1,223
44.10432972893527,10,2,4,1,224
44.0986271756454,10,2,4,1,225
44.10432972893527,10,2,4,1,226
44.0986271756454,10,2,4,1,227
44.0986271756454,10,2,4,1,228
44.10432972893527,10,2,4,1,229
44.10432972893527,10,2,4,1,230
44.10432972893527,10,2,4,1,231
44.09098385308217,10,2,4,1,232
44.08528302537272,10,2,4,1,233
44.10432972893527,10,2,4,1,234
44.0986271756454,10,2,4,1,235
44.10432972893527,10,2,4,1,236
44.10432972893527,10,2,4,1,237
44.10432972893527,10,2,4,1,238
44.10432972893527,10,2,4,1,239
44.10432972893527,10,2,4,1,240
44.0986271756454,10,2,4,1,241
44.0986271756454,10,2,4,1,242
44.05894083505504,10,2,4,1,243
44.10277585202766,10,2,4,1,244
44.08528302537272,10,2,4,1,245
44.08528302537272,10,2,4,1,246
44.10432972893527,10,2,4,1,247
44.0986271756454,10,2,4,1,248
44.10432972893527,10,2,4,1,249
44.09098385308217,10,2,4,1,250
44.09098385308217,10,2,4,1,251
44.10432972893527,10,2,4,1,252
44.0986271756454,10,2,4,1,253
44.0986271756454,10,2,4,1,254
44.10432972893527,10,2,4,1,255
44.06463825636039,10,2,4,1,0
44.0986271756454,10,2,4,1,1
44.08528302537272,10,2,4,1,2
44.09098385308217,10,2,4,1,3
44.10432972893527,10,2,4,1,4
44.0986271756454,10,2,4,1,5
44.10432972893527,10,2,4,1,6
44.08528302537272,10,2,4,1,7
44.0986271756454,10,2,4,1,8
44.09098385308217,10,2,4,1,9
44.0986271756454,10,2,4,1,10
44.0986271756454,10,2,4,1,11
44.10432972893527,10,2,4,1,12
44.10432972893527,10,2,4,1,13
44.08528302537272,10,2,4,1,14
44.0986271756454,10,2,4,1,15
44.08528302537272,10,2,4,1,16
44.10432972893527,10,2,4,1,17
44.0986271756454,10,2,4,1,18
44.10432972893527,10,2,4,1,19
44.09098385308217,10,2,4,1,20
44.0986271756454,10,2,4,1,21
44.092536631921526,10,2,4,1,22
44.10432972893527,10,2,4,1,23
51.58764671933564,10,2,4,3,25
51.54786421978679,10,2,4,3,26
51.58764671933564,10,2,4,3,27
51.58764671933564,10,2,4,3,28
51.580976596326764,10,2,4,3,29
51.58764671933564,10,2,4,3,30
51.58764671933564,10,2,4,3,31
51.580976596326764,10,2,4,3,32
51.58279268502442,10,2,4,3,33
51.580976596326764,10,2,4,3,34
51.58279268502442,10,2,4,3,35
51.58764671933564,10,2,4,3,36
51.580976596326764,10,2,4,3,37
51.58764671933564,10,2,4,3,38
51.54786421978679,10,2,4,3,39
51.580976596326764,10,2,4,3,40
51.580976596326764,10,2,4,3,41
51.58764671933564,10,2,4,3,42
51.580976596326764,10,2,4,3,43
51.58764671933564,10,2,4,3,44
51.580976596326764,10,2,4,3,45
51.58764671933564,10,2,4,3,46
51.580976596326764,10,2,4,3,47
51.580976596326764,10,2,4,3,48
51.58764671933564,10,2,4,3,49
51.6207572738838,10,2,4,3,50
51.58764671933564,10,2,4,3,51
51.580976596326764,10,2,4,3,52
51.580976596326764,10,2,4,3,53
51.580976596326764,10,2,4,3,54
51.58764671933564,10,2,4,3,55
51.580976596326764,10,2,4,3,56
51.58764671933564,10,2,4,3,57
51.580976596326764,10,2,4,3,58
51.580976596326764,10,2,4,3,59
51.594081607982176,10,2,4,3,60
51.58764671933564,10,2,4,3,61
51.580976596326764,10,2,4,3,62
51.580976596326764,10,2,4,3,63
51.58764671933564,10,2,4,3,64
51.58764671933564,10,2,4,3,65
51.58764671933564,10,2,4,3,66
51.580976596326764,10,2,4,3,67
51.594081607982176,10,2,4,3,68
51.580976596326764,10,2,4,3,69
51.58764671933564,10,2,4,3,70
51.580976596326764,10,2,4,3,71
51.580976596326764,10,2,4,3,72
51.594081607982176,10,2,4,3,73
51.580976596326764,10,2,4,3,74
51.580976596326764,10,2,4,3,75
51.580976596326764,10,2,4,3,76
51.60075342564761,10,2,4,3,77
51.58764671933564,10,2,4,3,78
51.58764671933564,10,2,4,3,79
51.58764671933564,10,2,4,3,80
51.580976596326764,10,2,4,3,81
51.60075342564761,10,2,4,3,82
51.58764671933564,10,2,4,3,83
51.58764671933564,10,2,4,3,84
51.58764671933564,10,2,4,3,85
51.580976596326764,10,2,4,3,86
51.594081607982176,10,2,4,3,87
51.58764671933564,10,2,4,3,88
51.6207572738838,10,2,4,3,89
51.58764671933564,10,2,4,3,90
51.58764671933564,10,2,4,3,91
51.58764671933564,10,2,4,3,92
51.580976596326764,10,2,4,3,93
51.580976596326764,10,2,4,3,94
51.58764671933564,10,2,4,3,95
51.58764671933564,10,2,4,3,96
51.58764671933564,10,2,4,3,97
51.58279268502442,10,2,4,3,98
51.580976596326764,10,2,4,3,99
51.6207572738838,10,2,4,3,100
51.6207572738838,10,2,4,3,101
51.6207572738838,10,2,4,3,102
51.580976596326764,10,2,4,3,103
51.58764671933564,10,2,4,3,104
51.58764671933564,10,2,4,3,105
51.58764671933564,10,2,4,3,106
51.58764671933564,10,2,4,3,107
51.60075342564761,10,2,4,3,108
51.58764671933564,10,2,4,3,109
51.594081607982176,10,2,4,3,110
51.58764671933564,10,2,4,3,111
51.580976596326764,10,2,4,3,112
51.580976596326764,10,2,4,3,113
51.580976596326764,10,2,4,3,114
51.62743254107625,10,2,4,3,115
51.580976596326764,10,2,4,3,116
51.58764671933564,10,2,4,3,117
51.580976596326764,10,2,4,3,118
51.58279268502442,10,2,4,3,119
51.580976596326764,10,2,4,3,120
51.580976596326764,10,2,4,3,121
51.60075342564761,10,2,4,3,122
51.594081607982176,10,2,4,3,123
107.13198159189623,10,2,4,4,125
107.14583521667336,10,2,4,4,126
107.11817292686086,10,2,4,4,127
107.11817292686086,10,2,4,4,128
107.13202476598946,10,2,4,4,129
107.13198159189623,10,2,4,4,130
107.11817292686086,10,2,4,4,131
107.13202476598946,10,2,4,4,132
107.13579769928643,10,2,4,4,133
107.13198159189623,10,2,4,4,134
107.13198159189623,10,2,4,4,135
107.13202476598946,10,2,4,4,136
107.13202476598946,10,2,4,4,137
107.11817292686086,10,2,4,4,138
107.14583521667336,10,2,4,4,139
107.13202476598946,10,2,4,4,140
107.15771154593698,10,2,4,4,141
107.11817292686086,10,2,4,4,142
107.11817292686086,10,2,4,4,143
107.11817292686086,10,2,4,4,144
107.11817292686086,10,2,4,4,145
107.13202476598946,10,2,4,4,146
107.11817292686086,10,2,4,4,147
107.14583521667336,10,2,4,4,148
107.11817292686086,10,2,4,4,149
107.13202476598946,10,2,4,4,150
107.11817292686086,10,2,4,4,151
107.13198159189623,10,2,4,4,152
107.13198159189623,10,2,4,4,153
107.13198159189623,10,2,4,4,154
107.14583521667336,10,2,4,4,155
107.07863608598736,10,2,4,4,156
107.13202476598946,10,2,4,4,157
107.1219443968097,10,2,4,4,158
107.13202476598946,10,2,4,4,159
107.14583521667336,10,2,4,4,160
107.14583521667336,10,2,4,4,161
107.14583521667336,10,2,4,4,162
107.13202476598946,10,2,4,4,163
107.13198159189623,10,2,4,4,164
107.11817292686086,10,2,4,4,165
107.13198159189623,10,2,4,4,166
107.13198159189623,10,2,4,4,167
107.13198159189623,10,2,4,4,168
107.13198159189623,10,2,4,4,169
107.13198159189623,10,2,4,4,170
107.11817292686086,10,2,4,4,171
107.13579769928643,10,2,4,4,172
107.11817292686086,10,2,4,4,173
107.11817292686086,10,2,4,4,174
107.14583521667336,10,2,4,4,175
107.13202476598946,10,2,4,4,176
107.13198159189623,10,2,4,4,177
107.11817292686086,10,2,4,4,178
107.13198159189623,10,2,4,4,179
107.13198159189623,10,2,4,4,180
107.11817292686086,10,2,4,4,181
107.14583521667336,10,2,4,4,182
107.11817292686086,10,2,4,4,183
107.11817292686086,10,2,4,4,184
107.13198159189623,10,2,4,4,185
107.11817292686086,10,2,4,4,186
107.13198159189623,10,2,4,4,187
107.11817292686086,10,2,4,4,188
107.11817292686086,10,2,4,4,189
107.13198159189623,10,2,4,4,190
107.13202476598946,10,2,4,4,191
107.13198159189623,10,2,4,4,192
107.11817292686086,10,2,4,4,193
107.13198159189623,10,2,4,4,194
107.13198159189623,10,2,4,4,195
107.14583521667336,10,2,4,4,196
107.1219443968097,10,2,4,4,197
107.11817292686086,10,2,4,4,198
107.13198159189623,10,2,4,4,199
107.14583521667336,10,2,4,4,200
107.13198159189623,10,2,4,4,201
107.14583521667336,10,2,4,4,202
107.11817292686086,10,2,4,4,203
107.14583521667336,10,2,4,4,204
107.14583521667336,10,2,4,4,205
107.11817292686086,10,2,4,4,206
107.13202476598946,10,2,4,4,207
107.0924828124638,10,2,4,4,208
107.13202476598946,10,2,4,4,209
107.13198159189623,10,2,4,4,210
107.13198159189623,10,2,4,4,211
107.13198159189623,10,2,4,4,212
107.14583521667336,10,2,4,4,213
107.11817292686086,10,2,4,4,214
107.13202476598946,10,2,4,4,215
107.13198159189623,10,2,4,4,216
107.13202476598946,10,2,4,4,217
107.1219443968097,10,2,4,4,218
107.14583521667336,10,2,4,4,219
107.13198159189623,10,2,4,4,220
107.13198159189623,10,2,4,4,221
107.11817292686086,10,2,4,4,222
107.11817292686086,10,2,4,4,223
60.34335631902914,10,2,4,5,225
60.33555410987612,10,2,4,5,226
60.33555410987612,10,2,4,5,227
60.33040437598839,10,2,4,5,228
60.33555410987612,10,2,4,5,229
60.36243412155099,10,2,4,5,230
60.375375846515894,10,2,4,5,231
60.375375846515894,10,2,4,5,232
60.33040437598839,10,2,4,5,233
60.34335631902914,10,2,4,5,234
60.370239806655746,10,2,4,5,235
60.33555410987612,10,2,4,5,236
60.32260384148149,10,2,4,5,237
60.34335631902914,10,2,4,5,238
60.34335631902914,10,2,4,5,239
60.34335631902914,10,2,4,5,240
60.33040437598839,10,2,4,5,241
60.33040437598839,10,2,4,5,242
60.36243412155099,10,2,4,5,243
60.34335631902914,10,2,4,5,244
60.375375846515894,10,2,4,5,245
60.33555410987612,10,2,4,5,246
60.33555410987612,10,2,4,5,247
60.33555410987612,10,2,4,5,248
60.34548146749715,10,2,4,5,249
60.375375846515894,10,2,4,5,250
60.33040437598839,10,2,4,5,251
60.33555410987612,10,2,4,5,252
60.34335631902914,10,2,4,5,253
60.32260384148149,10,2,4,5,254
60.375375846515894,10,2,4,5,255
60.33040437598839,10,2,4,5,0
60.34335631902914,10,2,4,5,1
60.36243412155099,10,2,4,5,2
60.34335631902914,10,2,4,5,3
60.33040437598839,10,2,4,5,4
60.32260384148149,10,2,4,5,5
60.324727709742206,10,2,4,5,6
60.33555410987612,10,2,4,5,7
60.33040437598839,10,2,4,5,8
60.34335631902914,10,2,4,5,9
60.33555410987612,10,2,4,5,10
60.32260384148149,10,2,4,5,11
60.33555410987612,10,2,4,5,12
60.33040437598839,10,2,4,5,13
60.33040437598839,10,2,4,5,14
60.33040437598839,10,2,4,5,15
60.34335631902914,10,2,4,5,16
60.33555410987612,10,2,4,5,17
60.33555410987612,10,2,4,5,18
60.33040437598839,10,2,4,5,19
60.32260384148149,10,2,4,5,20
60.337678434096325,10,2,4,5,21
60.33555410987612,10,2,4,5,22
60.33040437598839,10,2,4,5,23
60.324727709742206,10,2,4,5,24
60.34335631902914,10,2,4,5,25
60.33555410987612,10,2,4,5,26
60.32260384148149,10,2,4,5,27
60.33555410987612,10,2,4,5,28
60.34335631902914,10,2,4,5,29
60.2905717202485,10,2,4,5,30
60.32260384148149,10,2,4,5,31
60.33555410987612,10,2,4,5,32
60.32260384148149,10,2,4,5,33
60.32260384148149,10,2,4,5,34
60.34335631902914,10,2,4,5,35
60.34335631902914,10,2,4,5,36
60.33040437598839,10,2,4,5,37
60.33040437598839,10,2,4,5,38
60.32260384148149,10,2,4,5,39
60.32260384148149,10,2,4,5,40
60.324727709742206,10,2,4,5,41
60.32260384148149,10,2,4,5,42
60.2905717202485,10,2,4,5,43
60.33555410987612,10,2,4,5,44
60.32260384148149,10,2,4,5,45
60.32260384148149,10,2,4,5,46
60.32260384148149,10,2,4,5,47
60.34335631902914,10,2,4,5,48
60.32260384148149,10,2,4,5,49
60.32260384148149,10,2,4,5,50
60.33040437598839,10,2,4,5,51
60.32260384148149,10,2,4,5,52
60.32260384148149,10,2,4,5,53
60.32260384148149,10,2,4,5,54
60.28277633598068,10,2,4,5,55
60.32260384148149,10,2,4,5,56
60.33555410987612,10,2,4,5,57
60.33040437598839,10,2,4,5,58
60.32260384148149,10,2,4,5,59
60.32260384148149,10,2,4,5,60
60.28277633598068,10,2,4,5,61
60.33555410987612,10,2,4,5,62
60.28277633598068,10,2,4,5,63
60.33555410987612,10,2,4,5,64
60.2905717202485,10,2,4,5,65
60.34335631902914,10,2,4,5,66
60.32260384148149,10,2,4,5,67
56.18976670242328,10,2,4,6,69
56.18976670242328,10,2,4,6,70
56.21653892118994,10,2,4,6,71
56.19703280478266,10,2,4,6,72
56.19703280478266,10,2,4,6,73
56.19703280478266,10,2,4,6,74
56.19703280478266,10,2,4,6,75
56.183999230586686,10,2,4,6,76
56.18976670242328,10,2,4,6,77
56.21653892118994,10,2,4,6,78
56.236832833476676,10,2,4,6,79
56.21653892118994,10,2,4,6,80
56.1767348134281,10,2,4,6,81
56.18976670242328,10,2,4,6,82
56.236832833476676,10,2,4,6,83
56.18976670242328,10,2,4,6,84
56.1767348134281,10,2,4,6,85
56.2295615850968,10,2,4,6,86
56.19703280478266,10,2,4,6,87
56.19703280478266,10,2,4,6,88
56.21653892118994,10,2,4,6,89
56.18976670242328,10,2,4,6,90
56.2295615850968,10,2,4,6,91
56.236832833476676,10,2,4,6,92
56.21653892118994,10,2,4,6,93
56.18976670242328,10,2,4,6,94
56.18976670242328,10,2,4,6,95
56.19703280478266,10,2,4,6,96
56.1767348134281,10,2,4,6,97
56.183999230586686,10,2,4,6,98
56.19703280478266,10,2,4,6,99
56.19703280478266,10,2,4,6,100
56.18976670242328,10,2,4,6,101
56.2295615850968,10,2,4,6,102
56.18976670242328,10,2,4,6,103
56.1767348134281,10,2,4,6,104
56.2295615850968,10,2,4,6,105
56.2295615850968,10,2,4,6,106
56.19703280478266,10,2,4,6,107
56.18976670242328,10,2,4,6,108
56.2295615850968,10,2,4,6,109
56.2295615850968,10,2,4,6,110
56.2295615850968,10,2,4,6,111
56.19703280478266,10,2,4,6,112
56.18976670242328,10,2,4,6,113
56.18976670242328,10,2,4,6,114
56.1767348134281,10,2,4,6,115
56.22758102613276,10,2,4,6,116
56.1767348134281,10,2,4,6,117
56.19703280478266,10,2,4,6,118
56.2295615850968,10,2,4,6,119
56.19703280478266,10,2,4,6,120
56.18976670242328,10,2,4,6,121
56.236832833476676,10,2,4,6,122
56.19703280478266,10,2,4,6,123
56.2295615850968,10,2,4,6,124
56.2295615850968,10,2,4,6,125
56.2295615850968,10,2,4,6,126
56.2295615850968,10,2,4,6,127
56.1767348134281,10,2,4,6,128
56.18976670242328,10,2,4,6,129
56.236832833476676,10,2,4,6,130
56.19703280478266,10,2,4,6,131
56.2295615850968,10,2,4,6,132
56.19703280478266,10,2,4,6,133
56.18976670242328,10,2,4,6,134
56.18976670242328,10,2,4,6,135
56.2295615850968,10,2,4,6,136
56.18976670242328,10,2,4,6,137
56.1767348134281,10,2,4,6,138
56.18976670242328,10,2,4,6,139
56.18976670242328,10,2,4,6,140
56.19703280478266,10,2,4,6,141
56.18976670242328,10,2,4,6,142
56.236832833476676,10,2,4,6,143
56.18976670242328,10,2,4,6,144
56.18976670242328,10,2,4,6,145
56.19703280478266,10,2,4,6,146
56.19703280478266,10,2,4,6,147
56.2295615850968,10,2,4,6,148
56.183999230586686,10,2,4,6,149
56.18976670242328,10,2,4,6,150
56.18976670242328,10,2,4,6,151
56.2295615850968,10,2,4,6,152
56.18976670242328,10,2,4,6,153
56.18976670242328,10,2,4,6,154
56.1767348134281,10,2,4,6,155
56.2295615850968,10,2,4,6,156
56.18976670242328,10,2,4,6,157
56.22578855342288,10,2,4,6,158
56.18976670242328,10,2,4,6,159
56.18976670242328,10,2,4,6,160
56.1767348134281,10,2,4,6,161
56.2295615850968,10,2,4,6,162
56.1767348134281,10,2,4,6,163
56.18976670242328,10,2,4,6,164
56.19703280478266,10,2,4,6,165
56.19703280478266,10,2,4,6,166
56.1767348134281,10,2,4,6,167
54.58098191039263,10,2,4,7,169
54.53414372217067,10,2,4,7,170
54.54119572992263,10,2,4,7,171
54.53004058812742,10,2,4,7,172
54.536063787446395,10,2,4,7,173
54.53414372217067,10,2,4,7,174
54.53414372217067,10,2,4,7,175
54.52106992121346,10,2,4,7,176
54.54119572992263,10,2,4,7,177
54.53414372217067,10,2,4,7,178
54.53414372217067,10,2,4,7,179
54.54119572992263,10,2,4,7,180
54.53414372217067,10,2,4,7,181
54.57392475841071,10,2,4,7,182
54.53414372217067,10,2,4,7,183
54.57392475841071,10,2,4,7,184
54.52812023834483,10,2,4,7,185
54.54119572992263,10,2,4,7,186
54.53414372217067,10,2,4,7,187
54.53414372217067,10,2,4,7,188
54.52106992121346,10,2,4,7,189
54.57392475841071,10,2,4,7,190
54.53414372217067,10,2,4,7,191
54.536063787446395,10,2,4,7,192
54.53414372217067,10,2,4,7,193
54.54119572992263,10,2,4,7,194
54.56086048973342,10,2,4,7,195
54.53414372217067,10,2,4,7,196
54.57392475841071,10,2,4,7,197
54.53414372217067,10,2,4,7,198
54.52812023834483,10,2,4,7,199
54.53414372217067,10,2,4,7,200
54.536063787446395,10,2,4,7,201
54.53414372217067,10,2,4,7,202
54.53414372217067,10,2,4,7,203
54.53414372217067,10,2,4,7,204
54.53414372217067,10,2,4,7,205
54.52106992121346,10,2,4,7,206
54.52106992121346,10,2,4,7,207
54.56086048973342,10,2,4,7,208
54.57392475841071,10,2,4,7,209
54.57392475841071,10,2,4,7,210
54.53414372217067,10,2,4,7,211
54.53414372217067,10,2,4,7,212
54.53414372217067,10,2,4,7,213
54.52106992121346,10,2,4,7,214
54.53414372217067,10,2,4,7,215
54.53414372217067,10,2,4,7,216
54.53414372217067,10,2,4,7,217
54.57392475841071,10,2,4,7,218
54.52106992121346,10,2,4,7,219
54.57392475841071,10,2,4,7,220
54.52298952618028,10,2,4,7,221
54.53414372217067,10,2,4,7,222
54.58098191039263,10,2,4,7,223
54.54119572992263,10,2,4,7,224
54.52812023834483,10,2,4,7,225
54.57392475841071,10,2,4,7,226
54.53414372217067,10,2,4,7,227
54.57392475841071,10,2,4,7,228
54.53414372217067,10,2,4,7,229
54.54119572992263,10,2,4,7,230
54.54119572992263,10,2,4,7,231
54.53414372217067,10,2,4,7,232
54.53414372217067,10,2,4,7,233
