BIOZ1_TOMO,EXC_FREQ_KHZ,GND_OUTPUT,EXC_OUTPUT,SENSE_OUTPUT,PACKET_NUMBER
287.82969279839193,10,1,4,4,207
287.82969279839193,10,1,4,4,208
287.82969279839193,10,1,4,4,209
287.8395739797802,10,1,4,4,210
287.85668085487384,10,1,4,4,211
287.85668085487384,10,1,4,4,212
287.85668085487384,10,1,4,4,213
287.8395739797802,10,1,4,4,214
287.8395739797802,10,1,4,4,215
287.8395739797802,10,1,4,4,216
287.8395739797802,10,1,4,4,217
288.24094193895553,10,1,4,4,218
287.8737894241407,10,1,4,4,219
287.8737894241407,10,1,4,4,220
287.8737894241407,10,1,4,4,221
287.84679791166684,10,1,4,4,222
287.84679791166684,10,1,4,4,223
287.88367379147167,10,1,4,4,224
287.8935578204795,10,1,4,4,225
287.88367379147167,10,1,4,4,226
287.8935578204795,10,1,4,4,227
287.86656345994146,10,1,4,4,228
287.86656345994146,10,1,4,4,229
287.84679791166684,10,1,4,4,230
287.82969279839193,10,1,4,4,231
287.82969279839193,10,1,4,4,232
287.84679791166684,10,1,4,4,233
287.84679791166684,10,1,4,4,234
287.84679791166684,10,1,4,4,235
287.84679791166684,10,1,4,4,236
287.84679791166684,10,1,4,4,237
287.8737894241407,10,1,4,4,238
287.90078581774026,10,1,4,4,239
287.8737894241407,10,1,4,4,240
287.90078581774026,10,1,4,4,241
287.90078581774026,10,1,4,4,242
287.90078581774026,10,1,4,4,243
287.86390471873113,10,1,4,4,244
287.86390471873113,10,1,4,4,245
287.86390471873113,10,1,4,4,246
287.8737894241407,10,1,4,4,247
287.8737894241407,10,1,4,4,248
287.8737894241407,10,1,4,4,249
287.8737894241407,10,1,4,4,250
287.8737894241407,10,1,4,4,251
287.8737894241407,10,1,4,4,252
287.8737894241407,10,1,4,4,253
287.8737894241407,10,1,4,4,254
287.8737894241407,10,1,4,4,255
287.86390471873113,10,1,4,4,0
288.29500005971727,10,1,4,4,1
287.86390471873113,10,1,4,4,2
287.8737894241407,10,1,4,4,3
287.8737894241407,10,1,4,4,4
287.8737894241407,10,1,4,4,5
287.84679791166684,10,1,4,4,6
287.8369146305646,10,1,4,4,7
287.8369146305646,10,1,4,4,8
287.8369146305646,10,1,4,4,9
287.8369146305646,10,1,4,4,10
287.80004722746753,10,1,4,4,11
287.80004722746753,10,1,4,5,13
152.2104892199637,10,1,4,5,14
151.2536131680677,10,1,4,5,15
151.2536131680677,10,1,4,5,16
152.2104892199637,10,1,4,5,17
152.2104892199637,10,1,4,5,18
151.79762696285255,10,1,4,5,19
151.79762696285255,10,1,4,5,20
151.793823502303,10,1,4,5,21
151.793823502303,10,1,4,5,22
150.8180772137219,10,1,4,5,23
150.8180772137219,10,1,4,5,24
150.84117786953794,10,1,4,5,25
151.6950261321933,10,1,4,5,26
152.23380537169055,10,1,4,5,27
151.6950261321933,10,1,4,5,28
152.23380537169055,10,1,4,5,29
151.8260965895196,10,1,4,5,30
151.8260965895196,10,1,4,5,31
151.8260965895196,10,1,4,5,32
151.25740406538355,10,1,4,5,33
152.23380537169055,10,1,4,5,34
151.8170758276724,10,1,4,5,35
152.3637029985428,10,1,4,5,36
151.83131268017402,10,1,4,5,37
151.83131268017402,10,1,4,5,38
151.3089531443592,10,1,4,5,39
151.3089531443592,10,1,4,5,40
151.95564937505927,10,1,4,5,41
151.95564937505927,10,1,4,5,42
151.420303500383,10,1,4,5,43
151.3971092856511,10,1,4,5,44
151.420303500383,10,1,4,5,45
151.3971092856511,10,1,4,5,46
151.79762696285255,10,1,4,5,47
151.8118604891005,10,1,4,5,48
151.8118604891005,10,1,4,5,49
151.8118604891005,10,1,4,5,50
151.25740406538355,10,1,4,5,51
151.25740406538355,10,1,4,5,52
151.2611938229751,10,1,4,5,53
151.7924121988128,10,1,4,5,54
151.7924121988128,10,1,4,5,55
151.79762696285255,10,1,4,5,56
151.80284154948,10,1,4,5,57
151.8260965895196,10,1,4,5,58
152.3584688818081,10,1,4,5,59
152.3584688818081,10,1,4,5,60
152.22857571730043,10,1,4,5,61
151.8118604891005,10,1,4,5,62
151.8118604891005,10,1,4,5,63
151.8170758276724,10,1,4,5,64
151.8170758276724,10,1,4,5,65
151.8260965895196,10,1,4,5,66
151.8118604891005,10,1,4,5,67
152.20003310487223,10,1,4,5,68
151.66517238825983,10,1,4,5,69
151.66517238825983,10,1,4,5,70
151.66517238825983,10,1,4,5,71
151.78719725748923,10,1,4,5,72
151.7924121988128,10,1,4,5,73
152.34418410683114,10,1,4,5,74
152.34418410683114,10,1,4,5,75
152.7684445935497,10,1,4,5,76
151.77818199796846,10,1,4,5,77
151.78719725748923,10,1,4,5,78
151.78719725748923,10,1,4,5,79
152.20907404252284,10,1,4,5,80
152.3337168486411,10,1,4,5,81
152.3337168486411,10,1,4,5,82
152.33895056669715,10,1,4,5,83
152.33895056669715,10,1,4,5,84
152.33895056669715,10,1,4,5,85
152.19480478055792,10,1,4,5,86
151.78719725748923,10,1,4,5,87
151.78719725748923,10,1,4,5,88
151.78719725748923,10,1,4,5,89
151.78719725748923,10,1,4,5,90
152.3246691290971,10,1,4,5,91
152.3246691290971,10,1,4,5,92
152.18957627856994,10,1,4,5,93
152.1700824247728,10,1,4,5,94
152.1700824247728,10,1,4,5,95
151.3583228603053,10,1,4,5,96
151.3583228603053,10,1,4,5,97
151.76775344226098,10,1,4,5,98
152.18434759903718,10,1,4,5,99
152.31943616574785,10,1,4,5,100
152.31943616574785,10,1,4,5,101
152.31943616574785,10,1,4,5,102
152.20384478647145,10,1,4,5,103
152.20384478647145,10,1,4,5,104
152.20384478647145,10,1,4,5,105
152.20384478647145,10,1,4,5,106
152.19861535277872,10,1,4,5,107
151.79621340884643,10,1,4,5,108
151.78719725748923,10,1,4,5,109
151.78719725748923,10,1,4,5,110
152.74362550350585,10,1,4,5,111
152.74362550350585,10,1,4,6,113
129.43281413601153,10,1,4,6,114
129.40975196924433,10,1,4,6,115
129.43281413601153,10,1,4,6,116
129.42512598663382,10,1,4,6,117
129.42512598663382,10,1,4,6,118
129.4129920614845,10,1,4,6,119
129.4129920614845,10,1,4,6,120
129.4129920614845,10,1,4,6,121
129.4129920614845,10,1,4,6,122
129.4129920614845,10,1,4,6,123
129.41743859773837,10,1,4,6,124
129.420678657988,10,1,4,6,125
129.420678657988,10,1,4,6,126
129.4129920614845,10,1,4,6,127
129.40854537429354,10,1,4,6,128
129.40854537429354,10,1,4,6,129
129.40854537429354,10,1,4,6,130
129.40854537429354,10,1,4,6,131
129.40854537429354,10,1,4,6,132
129.40854537429354,10,1,4,6,133
129.42512598663382,10,1,4,6,134
129.42512598663382,10,1,4,6,135
129.42512598663382,10,1,4,6,136
129.420678657988,10,1,4,6,137
129.420678657988,10,1,4,6,138
129.43281413601153,10,1,4,6,139
129.43281413601153,10,1,4,6,140
129.43281413601153,10,1,4,6,141
129.43281413601153,10,1,4,6,142
129.43281413601153,10,1,4,6,143
129.43281413601153,10,1,4,6,144
129.40854537429354,10,1,4,6,145
129.42836601480133,10,1,4,6,146
129.420678657988,10,1,4,6,147
129.42836601480133,10,1,4,6,148
129.420678657988,10,1,4,6,149
129.42512598663382,10,1,4,6,150
129.42512598663382,10,1,4,6,151
129.42512598663382,10,1,4,6,152
129.41623117843272,10,1,4,6,153
129.41623117843272,10,1,4,6,154
129.42836601480133,10,1,4,6,155
129.42836601480133,10,1,4,6,156
129.42836601480133,10,1,4,6,157
129.42836601480133,10,1,4,6,158
129.42836601480133,10,1,4,6,159
129.42836601480133,10,1,4,6,160
129.42391774270925,10,1,4,6,161
129.42836601480133,10,1,4,6,162
129.42391774270925,10,1,4,6,163
129.41623117843272,10,1,4,6,164
129.41623117843272,10,1,4,6,165
129.420678657988,10,1,4,6,166
129.43281413601153,10,1,4,6,167
129.43605413200555,10,1,4,6,168
129.4481927165384,10,1,4,6,169
129.4481927165384,10,1,4,6,170
129.44050304595274,10,1,4,6,171
129.44050304595274,10,1,4,6,172
129.43605413200555,10,1,4,6,173
129.44050304595274,10,1,4,6,174
129.43281413601153,10,1,4,6,175
129.43281413601153,10,1,4,6,176
129.43281413601153,10,1,4,6,177
129.43605413200555,10,1,4,6,178
129.43605413200555,10,1,4,6,179
129.44050304595274,10,1,4,6,180
129.44050304595274,10,1,4,6,181
129.44050304595274,10,1,4,6,182
129.419469319845,10,1,4,6,183
129.43605413200555,10,1,4,6,184
129.43605413200555,10,1,4,6,185
129.43605413200555,10,1,4,6,186
129.42391774270925,10,1,4,6,187
129.42391774270925,10,1,4,6,188
129.419469319845,10,1,4,6,189
129.41623117843272,10,1,4,6,190
129.41623117843272,10,1,4,6,191
129.42391774270925,10,1,4,6,192
129.43160506720403,10,1,4,6,193
129.42391774270925,10,1,4,6,194
129.419469319845,10,1,4,6,195
129.419469319845,10,1,4,6,196
129.4271558516581,10,1,4,6,197
129.4271558516581,10,1,4,6,198
129.4117835480777,10,1,4,6,199
129.4117835480777,10,1,4,6,200
129.4117835480777,10,1,4,6,201
129.39965154753926,10,1,4,6,202
129.39965154753926,10,1,4,6,203
129.4150207463183,10,1,4,6,204
129.419469319845,10,1,4,6,205
129.419469319845,10,1,4,6,206
129.419469319845,10,1,4,6,207
129.4117835480777,10,1,4,6,208
129.40733576703263,10,1,4,6,209
129.40288783540703,10,1,4,6,210
129.40288783540703,10,1,4,6,211
129.40733576703263,10,1,4,7,213
157.11992387111948,10,1,4,7,214
158.9315422226094,10,1,4,7,215
158.99078424953785,10,1,4,7,216
159.38861492475868,10,1,4,7,217
158.99078424953785,10,1,4,7,218
159.43925339739363,10,1,4,7,219
159.43925339739363,10,1,4,7,220
159.43925339739363,10,1,4,7,221
159.43526517046604,10,1,4,7,222
158.92607922191092,10,1,4,7,223
158.45581813756013,10,1,4,7,224
158.45581813756013,10,1,4,7,225
158.4800863781211,10,1,4,7,226
158.4800863781211,10,1,4,7,227
158.4800863781211,10,1,4,7,228
158.92607922191092,10,1,4,7,229
158.92607922191092,10,1,4,7,230
158.91117959163958,10,1,4,7,231
158.91117959163958,10,1,4,7,232
158.91117959163958,10,1,4,7,233
158.9315422226094,10,1,4,7,234
158.9315422226094,10,1,4,7,235
158.9315422226094,10,1,4,7,236
158.92061603632845,10,1,4,7,237
158.92061603632845,10,1,4,7,238
158.92061603632845,10,1,4,7,239
158.93551757291084,10,1,4,7,240
159.0151376689841,10,1,4,7,241
158.93551757291084,10,1,4,7,242
158.91117959163958,10,1,4,7,243
158.91117959163958,10,1,4,7,244
158.4706750728032,10,1,4,7,245
158.4706750728032,10,1,4,7,246
158.4706750728032,10,1,4,7,247
158.48949861401442,10,1,4,7,248
158.54247017415727,10,1,4,7,249
158.54247017415727,10,1,4,7,250
158.9409815470157,10,1,4,7,251
159.43925339739363,10,1,4,7,252
159.43925339739363,10,1,4,7,253
158.92061603632845,10,1,4,7,254
158.92061603632845,10,1,4,7,255
158.97985399050074,10,1,4,7,0
159.35723733440068,10,1,4,7,1
159.35723733440068,10,1,4,7,2
159.35723733440068,10,1,4,7,3
158.95948497699425,10,1,4,7,4
158.95948497699425,10,1,4,7,5
159.40388137294707,10,1,4,7,6
159.40388137294707,10,1,4,7,7
158.9151526659967,10,1,4,7,8
158.43947735136888,10,1,4,7,9
158.43947735136888,10,1,4,7,10
158.44492446412946,10,1,4,7,11
158.87592759190335,10,1,4,7,12
158.45977982703593,10,1,4,7,13
158.45977982703593,10,1,4,7,14
158.45977982703593,10,1,4,7,15
158.90025461258043,10,1,4,7,16
158.90025461258043,10,1,4,7,17
158.90025461258043,10,1,4,7,18
158.90025461258043,10,1,4,7,19
158.90025461258043,10,1,4,7,20
158.89479184621234,10,1,4,7,21
158.88535925300528,10,1,4,7,22
158.88535925300528,10,1,4,7,23
158.88535925300528,10,1,4,7,24
158.8798972750704,10,1,4,7,25
158.43403005475702,10,1,4,7,26
158.43403005475702,10,1,4,7,27
158.90422537162354,10,1,4,7,28
158.90968911105017,10,1,4,7,29
158.98382850541378,10,1,4,7,30
158.98382850541378,10,1,4,7,31
158.98382850541378,10,1,4,7,32
158.90968911105017,10,1,4,7,33
158.90968911105017,10,1,4,7,34
158.92458907028578,10,1,4,7,35
158.95402017436982,10,1,4,7,36
158.95402017436982,10,1,4,7,37
158.92458907028578,10,1,4,7,38
158.90968911105017,10,1,4,7,39
158.92458907028578,10,1,4,7,40
158.90968911105017,10,1,4,7,41
158.95402017436982,10,1,4,7,42
159.41334540009646,10,1,4,7,43
159.4173289807671,10,1,4,7,44
159.41334540009646,10,1,4,7,45
158.89479184621234,10,1,4,7,46
158.89479184621234,10,1,4,7,47
158.90968911105017,10,1,4,7,48
158.93402640740095,10,1,4,7,49
158.93402640740095,10,1,4,7,50
158.91912454203498,10,1,4,7,51
158.46918919122132,10,1,4,7,52
158.46374032162672,10,1,4,7,53
158.46918919122132,10,1,4,7,54
158.90968911105017,10,1,4,7,55
158.90968911105017,10,1,4,8,57
136.8462846309669,10,1,4,8,58
136.8462846309669,10,1,4,8,59
137.2657777665332,10,1,4,8,60
137.39177974749066,10,1,4,8,61
137.82252683543544,10,1,4,8,62
137.82252683543544,10,1,4,8,63
137.2657777665332,10,1,4,8,64
136.85099017154005,10,1,4,8,65
136.8462846309669,10,1,4,8,66
136.8462846309669,10,1,4,8,67
137.25762851002887,10,1,4,8,68
137.79194618544037,10,1,4,8,69
137.80486558746313,10,1,4,8,70
137.80486558746313,10,1,4,8,71
137.25762851002887,10,1,4,8,72
137.25762851002887,10,1,4,8,73
137.81778732633865,10,1,4,8,74
137.81778732633865,10,1,4,8,75
138.22130740685787,10,1,4,8,76
137.79194618544037,10,1,4,8,77
137.79194618544037,10,1,4,8,78
137.79194618544037,10,1,4,8,79
137.7966843261503,10,1,4,8,80
137.7966843261503,10,1,4,8,81
137.79194618544037,10,1,4,8,82
137.7872078849885,10,1,4,8,83
137.7790291196615,10,1,4,8,84
137.7790291196615,10,1,4,8,85
137.35657406883962,10,1,4,8,86
136.39862493271335,10,1,4,8,87
136.39862493271335,10,1,4,8,88
136.81121856705136,10,1,4,8,89
136.81121856705136,10,1,4,8,90
136.81121856705136,10,1,4,8,91
136.81121856705136,10,1,4,8,92
136.81121856705136,10,1,4,8,93
136.81121856705136,10,1,4,8,94
137.79538745841214,10,1,4,8,95
137.89851786216354,10,1,4,8,96
137.89851786216354,10,1,4,8,97
136.7983947929277,10,1,4,8,98
136.7983947929277,10,1,4,8,99
137.77429150330107,10,1,4,8,100
137.77429150330107,10,1,4,8,101
137.77429150330107,10,1,4,8,102
138.3145615228933,10,1,4,8,103
136.81121856705136,10,1,4,8,104
137.35185097885503,10,1,4,8,105
136.81933932317102,10,1,4,8,106
137.35185097885503,10,1,4,8,107
136.81933932317102,10,1,4,8,108
137.35185097885503,10,1,4,8,109
137.77429150330107,10,1,4,8,110
137.77429150330107,10,1,4,8,111
137.7648157920821,10,1,4,8,112
137.7613774571228,10,1,4,8,113
137.7648157920821,10,1,4,8,114
137.7613774571228,10,1,4,8,115
138.3098051682144,10,1,4,8,116
137.7648157920821,10,1,4,8,117
138.2873293518011,10,1,4,8,118
137.7648157920821,10,1,4,8,119
137.36815747758226,10,1,4,8,120
137.35527973536696,10,1,4,8,121
137.36000382550068,10,1,4,8,122
137.36000382550068,10,1,4,8,123
137.7648157920821,10,1,4,8,124
137.7648157920821,10,1,4,8,125
137.7648157920821,10,1,4,8,126
137.78246942491143,10,1,4,8,127
137.79064815443488,10,1,4,8,128
137.79064815443488,10,1,4,8,129
137.79064815443488,10,1,4,8,130
137.79064815443488,10,1,4,8,131
137.79538745841214,10,1,4,8,132
137.79538745841214,10,1,4,8,133
137.79064815443488,10,1,4,8,134
137.79064815443488,10,1,4,8,135
137.79538745841214,10,1,4,8,136
138.32277151351903,10,1,4,8,137
138.32277151351903,10,1,4,8,138
138.22000654279736,10,1,4,8,139
138.22000654279736,10,1,4,8,140
136.40074551262433,10,1,4,8,141
138.20229548040155,10,1,4,8,142
137.36000382550068,10,1,4,8,143
137.79538745841214,10,1,4,8,144
137.79538745841214,10,1,4,8,145
137.79538745841214,10,1,4,8,146
137.79064815443488,10,1,4,8,147
137.36343254616543,10,1,4,8,148
137.77773080532575,10,1,4,8,149
137.36343254616543,10,1,4,8,150
137.2211650851881,10,1,4,8,151
136.80180909316104,10,1,4,8,152
136.80180909316104,10,1,4,8,153
138.3050486534888,10,1,4,8,154
138.70191681175234,10,1,4,8,155
138.70191681175234,10,1,4,8,156
136.78087003800792,10,1,4,8,157
136.78087003800792,10,1,4,8,158
136.78087003800792,10,1,4,8,159
136.6963829501479,10,1,4,8,160
136.6963829501479,10,1,4,8,161
137.77299202634808,10,1,4,8,162
137.77299202634808,10,1,4,8,163
137.77299202634808,10,1,4,8,164
138.82877935459084,10,1,4,8,165
139.2547419331799,10,1,4,8,166
139.2547419331799,10,1,4,8,167
137.74716570369606,10,1,4,8,168
137.74716570369606,10,1,4,8,169
137.74716570369606,10,1,4,8,170
137.34583107850582,10,1,4,8,171
136.79710411887072,10,1,4,8,172
136.9174167062143,10,1,4,8,173
136.9174167062143,10,1,4,8,174
136.9174167062143,10,1,4,8,175
137.21644536725765,10,1,4,8,176
138.2825732043293,10,1,4,8,177
138.2825732043293,10,1,4,8,178
136.77146296496855,10,1,4,8,179
136.25314889609302,10,1,4,8,180
135.82955847305047,10,1,4,8,181
135.82955847305047,10,1,4,8,182
136.7923989865047,10,1,4,8,183
136.7923989865047,10,1,4,8,184
136.77957792998131,10,1,4,8,185
136.77957792998131,10,1,4,8,186
137.19544444559378,10,1,4,8,187
137.75060103075694,10,1,4,8,188
137.75060103075694,10,1,4,8,189
138.2825732043293,10,1,4,8,190
137.75060103075694,10,1,4,8,191
137.34583107850582,10,1,4,8,192
137.34583107850582,10,1,4,8,193
137.34583107850582,10,1,4,8,194
136.7876936961787,10,1,4,8,195
136.7876936961787,10,1,4,8,196
136.7876936961787,10,1,4,8,197
136.90799800708754,10,1,4,8,198
137.2035845664015,10,1,4,8,199
137.7376904057089,10,1,4,8,200
137.7376904057089,10,1,4,8,201
138.2825732043293,10,1,4,8,202
137.85714329724746,10,1,4,8,203
137.85714329724746,10,1,4,8,204
137.85714329724746,10,1,4,8,205
136.35301196627975,10,1,4,8,206
137.732952518354,10,1,4,8,207
136.75394277056503,10,1,4,8,208
137.18600757774814,10,1,4,8,209
137.18600757774814,10,1,4,8,210
137.18600757774814,10,1,4,8,211
137.72478211493066,10,1,4,8,212
137.1988653717437,10,1,4,8,213
137.31536210674915,10,1,4,8,214
137.31536210674915,10,1,4,8,215
137.31536210674915,10,1,4,8,216
136.76675919153598,10,1,4,8,217
136.76675919153598,10,1,4,8,218
137.732952518354,10,1,4,8,219
137.74586245891558,10,1,4,8,220
137.732952518354,10,1,4,8,221
136.75735117142335,10,1,4,8,222
136.75735117142335,10,1,4,8,223
136.7654636246909,10,1,4,8,224
136.7654636246909,10,1,4,8,225
136.7526469249744,10,1,4,8,226
136.7526469249744,10,1,4,8,227
136.75735117142335,10,1,4,8,228
136.8904574484053,10,1,4,8,229
137.29777071720392,10,1,4,8,230
137.72004491193587,10,1,4,8,231
137.72004491193587,10,1,4,8,232
137.72004491193587,10,1,4,8,233
137.72004491193587,10,1,4,8,234
137.29777071720392,10,1,4,8,235
137.181288906526,10,1,4,8,236
136.77357687859708,10,1,4,8,237
136.77357687859708,10,1,4,8,238
138.14443182684366,10,1,4,8,239
138.16557559791283,10,1,4,8,240
138.14443182684366,10,1,4,8,241
137.73638483883238,10,1,4,8,242
136.34832170895587,10,1,4,8,243
137.73638483883238,10,1,4,8,244
136.36110186575024,10,1,4,8,245
137.20228526323226,10,1,4,8,246
137.20228526323226,10,1,4,8,247
137.20228526323226,10,1,4,8,248
137.72821447224675,10,1,4,8,249
137.74112372823527,10,1,4,8,250
137.74112372823527,10,1,4,8,251
137.34453123292369,10,1,4,8,252
137.21514634415453,10,1,4,8,253
137.21514634415453,10,1,4,8,254
137.21514634415453,10,1,4,8,255
137.31878490209695,10,1,5,2,1
152.56397457376224,10,1,5,2,2
152.75712680258383,10,1,5,2,3
152.75712680258383,10,1,5,2,4
152.65822831515064,10,1,5,2,5
152.65822831515064,10,1,5,2,6
152.74808241376667,10,1,5,2,7
153.08056439382713,10,1,5,2,8
153.08056439382713,10,1,5,2,9
153.08056439382713,10,1,5,2,10
152.6529877544411,10,1,5,2,11
152.64394988665867,10,1,5,2,12
152.64394988665867,10,1,5,2,13
152.64394988665867,10,1,5,2,14
152.64394988665867,10,1,5,2,15
152.64394988665867,10,1,5,2,16
152.63871008138563,10,1,5,2,17
152.62967403442934,10,1,5,2,18
152.1949248737071,10,1,5,2,19
152.1949248737071,10,1,5,2,20
152.56397457376224,10,1,5,2,21
152.6529877544411,10,1,5,2,22
153.0662477077214,10,1,5,2,23
152.6529877544411,10,1,5,2,24
153.0662477077214,10,1,5,2,25
152.5354384531238,10,1,5,2,26
152.61016246297544,10,1,5,2,27
152.5354384531238,10,1,5,2,28
152.60492399312963,10,1,5,2,29
152.60492399312963,10,1,5,2,30
152.61016246297544,10,1,5,2,31
152.61016246297544,10,1,5,2,32
152.61016246297544,10,1,5,2,33
152.61016246297544,10,1,5,2,34
152.61016246297544,10,1,5,2,35
152.61016246297544,10,1,5,2,36
152.6999887112986,10,1,5,2,37
153.04668032642272,10,1,5,2,38
153.04668032642272,10,1,5,2,39
152.61919575935423,10,1,5,2,40
152.61395635925922,10,1,5,2,41
152.60492399312963,10,1,5,2,42
152.61395635925922,10,1,5,2,43
152.60492399312963,10,1,5,2,44
152.61919575935423,10,1,5,2,45
152.5354384531238,10,1,5,2,46
152.63347010089342,10,1,5,2,47
152.53923120110827,10,1,5,2,48
152.62822994531024,10,1,5,2,49
152.62822994531024,10,1,5,2,50
152.63347010089342,10,1,5,2,51
152.63347010089342,10,1,5,2,52
152.61395635925922,10,1,5,2,53
152.61395635925922,10,1,5,2,54
152.61395635925922,10,1,5,2,55
152.62443498445367,10,1,5,2,56
152.62822994531024,10,1,5,2,57
152.62822994531024,10,1,5,2,58
152.63347010089342,10,1,5,2,59
152.6515430034865,10,1,5,2,60
152.7233091818428,10,1,5,2,61
152.7233091818428,10,1,5,2,62
152.62822994531024,10,1,5,2,63
152.61395635925922,10,1,5,2,64
152.61395635925922,10,1,5,2,65
152.61395635925922,10,1,5,2,66
152.6229896147643,10,1,5,2,67
152.61395635925922,10,1,5,2,68
152.63726502093758,10,1,5,2,69
152.63726502093758,10,1,5,2,70
152.63726502093758,10,1,5,2,71
152.63726502093758,10,1,5,2,72
153.06479948800776,10,1,5,2,73
153.15655029517288,10,1,5,2,74
153.15655029517288,10,1,5,2,75
152.62822994531024,10,1,5,2,76
152.62822994531024,10,1,5,2,77
152.62822994531024,10,1,5,2,78
152.6229896147643,10,1,5,2,79
153.05954416830343,10,1,5,2,80
152.6229896147643,10,1,5,2,81
152.60871678429672,10,1,5,2,82
152.52875647664118,10,1,5,2,83
152.09593091542638,10,1,5,2,84
152.52496593809968,10,1,5,2,85
152.52496593809968,10,1,5,2,86
152.53399392624104,10,1,5,2,87
152.6229896147643,10,1,5,2,88
152.60871678429672,10,1,5,2,89
152.60871678429672,10,1,5,2,90
152.52496593809968,10,1,5,2,91
152.52496593809968,10,1,5,2,92
152.08170737386004,10,1,5,2,93
152.60871678429672,10,1,5,2,94
152.60871678429672,10,1,5,2,95
152.60871678429672,10,1,5,2,96
152.60871678429672,10,1,5,2,97
152.6177491093837,10,1,5,2,98
152.6177491093837,10,1,5,2,99
152.52875647664118,10,1,5,3,101
130.21102700883188,10,1,5,3,102
130.21102700883188,10,1,5,3,103
130.2187337004982,10,1,5,3,104
130.2232050806528,10,1,5,3,105
130.2232050806528,10,1,5,3,106
130.99960541650304,10,1,5,3,107
131.9493396969517,10,1,5,3,108
132.51931578387874,10,1,5,3,109
132.51931578387874,10,1,5,3,110
132.51931578387874,10,1,5,3,111
132.5069232175039,10,1,5,3,112
131.55317722984768,10,1,5,3,113
132.5069232175039,10,1,5,3,114
131.94480897087266,10,1,5,3,115
131.94480897087266,10,1,5,3,116
131.55317722984768,10,1,5,3,117
130.5951505371597,10,1,5,3,118
130.5951505371597,10,1,5,3,119
130.5951505371597,10,1,5,3,120
131.14712292251647,10,1,5,3,121
131.14712292251647,10,1,5,3,122
132.32310466501198,10,1,5,3,123
132.32310466501198,10,1,5,3,124
131.55317722984768,10,1,5,3,125
130.5906660063809,10,1,5,3,126
131.55317722984768,10,1,5,3,127
130.20208538908082,10,1,5,3,128
130.5951505371597,10,1,5,3,129
130.5951505371597,10,1,5,3,130
131.15488364739033,10,1,5,3,131
131.54866010674397,10,1,5,3,132
131.94027809392588,10,1,5,3,133
131.94027809392588,10,1,5,3,134
130.5951505371597,10,1,5,3,135
130.5951505371597,10,1,5,3,136
130.5951505371597,10,1,5,3,137
130.20979049310162,10,1,5,3,138
130.19438104338968,10,1,5,3,139
130.19438104338968,10,1,5,3,140
130.19438104338968,10,1,5,3,141
130.20208538908082,10,1,5,3,142
130.20208538908082,10,1,5,3,143
131.53635960954293,10,1,5,3,144
131.53635960954293,10,1,5,3,145
131.93574706622212,10,1,5,3,146
131.93574706622212,10,1,5,3,147
131.15037989583382,10,1,5,3,148
131.15037989583382,10,1,5,3,149
131.15037989583382,10,1,5,3,150
131.55644489841526,10,1,5,3,151
130.61060802754946,10,1,5,3,152
131.55644489841526,10,1,5,3,153
131.57326776050044,10,1,5,3,154
131.96495854452237,10,1,5,3,155
132.51476525588694,10,1,5,3,156
132.51476525588694,10,1,5,3,157
130.20979049310162,10,1,5,3,158
130.20979049310162,10,1,5,3,159
130.20979049310162,10,1,5,3,160
130.99836141223952,10,1,5,3,161
131.54414283322555,10,1,5,3,162
131.94808552450465,10,1,5,3,163
131.95261720585663,10,1,5,3,164
131.95261720585663,10,1,5,3,165
131.95261720585663,10,1,5,3,166
130.20979049310162,10,1,5,3,167
130.5983935750492,10,1,5,3,168
130.20531866607826,10,1,5,3,169
130.20531866607826,10,1,5,3,170
130.20531866607826,10,1,5,3,171
130.58618132638725,10,1,5,3,172
130.58618132638725,10,1,5,3,173
130.58618132638725,10,1,5,3,174
131.54414283322555,10,1,5,3,175
131.54414283322555,10,1,5,3,176
131.93574706622212,10,1,5,3,177
130.58618132638725,10,1,5,3,178
130.58618132638725,10,1,5,3,179
130.1976143558381,10,1,5,3,180
130.1976143558381,10,1,5,3,181
130.18096987821494,10,1,5,3,182
131.53510783538607,10,1,5,3,183
131.1413719432676,10,1,5,3,184
131.5396254094028,10,1,5,3,185
131.5396254094028,10,1,5,3,186
131.5396254094028,10,1,5,3,187
130.58942247368722,10,1,5,3,188
130.58942247368722,10,1,5,3,189
131.52732621525078,10,1,5,3,190
131.91888030923477,10,1,5,3,191
131.52732621525078,10,1,5,3,192
131.91888030923477,10,1,5,3,193
130.58618132638725,10,1,5,3,194
131.91888030923477,10,1,5,3,195
130.1764991925269,10,1,5,3,196
131.93121588787213,10,1,5,3,197
131.90201693431095,10,1,5,3,198
131.90201693431095,10,1,5,3,199
131.90201693431095,10,1,5,4,201
155.44389615923058,10,1,5,4,202
155.44389615923058,10,1,5,4,203
155.5589102778303,10,1,5,4,204
155.56425303923496,10,1,5,4,205
155.56425303923496,10,1,5,4,206
155.0180961601166,10,1,5,4,207
155.00892690515255,10,1,5,4,208
155.0180961601166,10,1,5,4,209
155.02342034694536,10,1,5,4,210
155.03259144881434,10,1,5,4,211
155.02342034694536,10,1,5,4,212
155.03259144881434,10,1,5,4,213
155.15629771574908,10,1,5,4,214
155.15629771574908,10,1,5,4,215
155.03259144881434,10,1,5,4,216
155.03259144881434,10,1,5,4,217
155.5880046198672,10,1,5,4,218
155.5880046198672,10,1,5,4,219
155.5880046198672,10,1,5,4,220
155.03259144881434,10,1,5,4,221
155.0272663170342,10,1,5,4,222
155.0272663170342,10,1,5,4,223
154.62843250455063,10,1,5,4,224
155.04176345293678,10,1,5,4,225
155.06158987376241,10,1,5,4,226
155.06158987376241,10,1,5,4,227
155.04176345293678,10,1,5,4,228
155.04176345293678,10,1,5,4,229
155.04176345293678,10,1,5,4,230
155.04176345293678,10,1,5,4,231
155.4622890179134,10,1,5,4,232
155.4768280981975,10,1,5,4,233
155.4768280981975,10,1,5,4,234
155.5880046198672,10,1,5,4,235
155.5880046198672,10,1,5,4,236
155.4768280981975,10,1,5,4,237
155.4768280981975,10,1,5,4,238
155.06158987376241,10,1,5,4,239
155.07076557390997,10,1,5,4,240
155.07076557390997,10,1,5,4,241
155.49671168969357,10,1,5,4,242
156.01631717390075,10,1,5,4,243
156.01631717390075,10,1,5,4,244
155.59186504725128,10,1,5,4,245
155.05626320500187,10,1,5,4,246
154.50200229758022,10,1,5,4,247
154.50200229758022,10,1,5,4,248
154.50200229758022,10,1,5,4,249
155.0272663170342,10,1,5,4,250
155.05626320500187,10,1,5,4,251
155.05626320500187,10,1,5,4,252
155.05626320500187,10,1,5,4,253
155.0272663170342,10,1,5,4,254
155.05626320500187,10,1,5,4,255
155.04176345293678,10,1,5,4,0
155.05626320500187,10,1,5,4,1
155.05626320500187,10,1,5,4,2
155.5826601391144,10,1,5,4,3
155.05626320500187,10,1,5,4,4
155.4768280981975,10,1,5,4,5
155.4768280981975,10,1,5,4,6
155.4768280981975,10,1,5,4,7
155.45694849485957,10,1,5,4,8
155.45694849485957,10,1,5,4,9
155.48602773774127,10,1,5,4,10
155.48602773774127,10,1,5,4,11
155.4714868044012,10,1,5,4,12
155.4714868044012,10,1,5,4,13
155.4714868044012,10,1,5,4,14
155.0364373760003,10,1,5,4,15
155.05093635940779,10,1,5,4,16
155.05093635940779,10,1,5,4,17
155.1746572644285,10,1,5,4,18
155.4768280981975,10,1,5,4,19
155.4768280981975,10,1,5,4,20
155.48602773774127,10,1,5,4,21
155.48602773774127,10,1,5,4,22
155.50057129556222,10,1,5,4,23
155.0654379595163,10,1,5,4,24
155.60641723932463,10,1,5,4,25
155.4806854957805,10,1,5,4,26
155.58651944048557,10,1,5,4,27
155.58651944048557,10,1,5,4,28
155.58651944048557,10,1,5,4,29
155.50057129556222,10,1,5,4,30
155.50057129556222,10,1,5,4,31
155.50057129556222,10,1,5,4,32
155.4806854957805,10,1,5,4,33
154.65588244740363,10,1,5,4,34
154.65588244740363,10,1,5,4,35
154.51497572173895,10,1,5,4,36
155.0456093371102,10,1,5,4,37
155.0456093371102,10,1,5,4,38
155.0456093371102,10,1,5,4,39
155.0456093371102,10,1,5,4,40
155.0456093371102,10,1,5,4,41
155.0456093371102,10,1,5,4,42
155.47534307667075,10,1,5,4,43
155.47534307667075,10,1,5,5,45
265.0434564327842,10,1,5,5,46
265.0434564327842,10,1,5,5,47
265.45900215438104,10,1,5,5,48
265.45900215438104,10,1,5,5,49
265.0434564327842,10,1,5,5,50
265.0434564327842,10,1,5,5,51
265.43418002304884,10,1,5,5,52
265.43418002304884,10,1,5,5,53
265.5785575059959,10,1,5,5,54
265.52889629153015,10,1,5,5,55
265.52889629153015,10,1,5,5,56
265.52889629153015,10,1,5,5,57
264.9847926820811,10,1,5,5,58
265.52889629153015,10,1,5,5,59
265.0252475334767,10,1,5,5,60
265.39113018437143,10,1,5,5,61
265.39113018437143,10,1,5,5,62
265.41594520651626,10,1,5,5,63
265.41594520651626,10,1,5,5,64
265.41594520651626,10,1,5,5,65
265.00046688564913,10,1,5,5,66
265.00046688564913,10,1,5,5,67
265.00046688564913,10,1,5,5,68
265.4002464283056,10,1,5,5,69
265.4002464283056,10,1,5,5,70
265.39113018437143,10,1,5,5,71
265.39113018437143,10,1,5,5,72
265.00046688564913,10,1,5,5,73
265.41594520651626,10,1,5,5,74
265.41594520651626,10,1,5,5,75
265.41594520651626,10,1,5,5,76
265.41594520651626,10,1,5,5,77
265.00046688564913,10,1,5,5,78
265.00046688564913,10,1,5,5,79
265.00046688564913,10,1,5,5,80
265.52889629153015,10,1,5,5,81
265.52889629153015,10,1,5,5,82
265.39113018437143,10,1,5,5,83
265.39113018437143,10,1,5,5,84
265.406827344828,10,1,5,5,85
265.406827344828,10,1,5,5,86
265.41594520651626,10,1,5,5,87
265.41594520651626,10,1,5,5,88
265.5263578144769,10,1,5,5,89
265.5263578144769,10,1,5,5,90
265.43164552879045,10,1,5,5,91
265.43164552879045,10,1,5,5,92
265.52889629153015,10,1,5,5,93
265.52889629153015,10,1,5,5,94
265.406827344828,10,1,5,5,95
265.39113018437143,10,1,5,5,96
264.9665884335189,10,1,5,5,97
264.9665884335189,10,1,5,5,98
265.3820136383951,10,1,5,5,99
265.3820136383951,10,1,5,5,100
265.3820136383951,10,1,5,5,101
265.3820136383951,10,1,5,5,102
265.3820136383951,10,1,5,5,103
265.5106546634743,10,1,5,5,104
265.5106546634743,10,1,5,5,105
265.5106546634743,10,1,5,5,106
265.41340626727794,10,1,5,5,107
265.3820136383951,10,1,5,5,108
265.3820136383951,10,1,5,5,109
265.5263578144769,10,1,5,5,110
265.9409576062823,10,1,5,5,111
265.9409576062823,10,1,5,5,112
265.53548039807976,10,1,5,5,113
265.53548039807976,10,1,5,5,114
265.50153339638626,10,1,5,5,115
265.50153339638626,10,1,5,5,116
265.50153339638626,10,1,5,5,117
265.5263578144769,10,1,5,5,118
265.3885907157204,10,1,5,5,119
265.3885907157204,10,1,5,5,120
265.3885907157204,10,1,5,5,121
265.3480888761651,10,1,5,5,122
264.9483829795678,10,1,5,5,123
264.9483829795678,10,1,5,5,124
265.3572044083276,10,1,5,5,125
265.3572044083276,10,1,5,5,126
265.3572044083276,10,1,5,5,127
265.3480888761651,10,1,5,5,128
264.9483829795678,10,1,5,5,129
264.9483829795678,10,1,5,5,130
264.9483829795678,10,1,5,5,131
265.36377964120584,10,1,5,5,132
265.47671345658745,10,1,5,5,133
265.3794719487458,10,1,5,5,134
265.3794719487458,10,1,5,5,135
265.3794719487458,10,1,5,5,136
265.49241182755463,10,1,5,5,137
265.49241182755463,10,1,5,5,138
265.36377964120584,10,1,5,5,139
265.36377964120584,10,1,5,5,140
265.36377964120584,10,1,5,5,141
264.96405072259415,10,1,5,5,142
264.96405072259415,10,1,5,5,143
264.96405072259415,10,1,5,6,145
134.30102959033653,10,1,5,6,146
134.2930892496583,10,1,5,6,147
134.2930892496583,10,1,5,6,148
134.2930892496583,10,1,5,6,149
134.30102959033653,10,1,5,6,150
134.30102959033653,10,1,5,6,151
134.30102959033653,10,1,5,6,152
134.30102959033653,10,1,5,6,153
134.30102959033653,10,1,5,6,154
134.29179839045148,10,1,5,6,155
134.28385968690517,10,1,5,6,156
134.28385968690517,10,1,5,6,157
134.28385968690517,10,1,5,6,158
134.29179839045148,10,1,5,6,159
134.29179839045148,10,1,5,6,160
134.29179839045148,10,1,5,6,161
134.29641406647454,10,1,5,6,162
134.29641406647454,10,1,5,6,163
134.29641406647454,10,1,5,6,164
134.30897071141126,10,1,5,6,165
134.30897071141126,10,1,5,6,166
134.3043543687914,10,1,5,6,167
134.3043543687914,10,1,5,6,168
134.30897071141126,10,1,5,6,169
134.31691261296467,10,1,5,6,170
134.31691261296467,10,1,5,6,171
134.31358690178692,10,1,5,6,172
134.31358690178692,10,1,5,6,173
134.31358690178692,10,1,5,6,174
133.93150243922685,10,1,5,6,175
133.93150243922685,10,1,5,6,176
134.29179839045148,10,1,5,6,177
134.31691261296467,10,1,5,6,178
134.32152962230478,10,1,5,6,179
134.32152962230478,10,1,5,6,180
134.30897071141126,10,1,5,6,181
134.3043543687914,10,1,5,6,182
134.3043543687914,10,1,5,6,183
134.3043543687914,10,1,5,6,184
134.3043543687914,10,1,5,6,185
134.3043543687914,10,1,5,6,186
134.3043543687914,10,1,5,6,187
134.31229545140963,10,1,5,6,188
134.31229545140963,10,1,5,6,189
134.3043543687914,10,1,5,6,190
134.3043543687914,10,1,5,6,191
134.31229545140963,10,1,5,6,192
134.31229545140963,10,1,5,6,193
134.3043543687914,10,1,5,6,194
134.3043543687914,10,1,5,6,195
134.3043543687914,10,1,5,6,196
134.31691261296467,10,1,5,6,197
134.31691261296467,10,1,5,6,198
134.31691261296467,10,1,5,6,199
134.31229545140963,10,1,5,6,200
134.29512122726896,10,1,5,6,201
134.29179839045148,10,1,5,6,202
134.27924467735562,10,1,5,6,203
134.27001420247274,10,1,5,6,204
134.27001420247274,10,1,5,6,205
134.2746295158407,10,1,5,6,206
134.2746295158407,10,1,5,6,207
134.28718256237988,10,1,5,6,208
134.27924467735562,10,1,5,6,209
134.28718256237988,10,1,5,6,210
134.28718256237988,10,1,5,6,211
134.28718256237988,10,1,5,6,212
134.28718256237988,10,1,5,6,213
134.3043543687914,10,1,5,6,214
134.3043543687914,10,1,5,6,215
134.3043543687914,10,1,5,6,216
134.3043543687914,10,1,5,6,217
133.92229446150176,10,1,5,6,218
133.92229446150176,10,1,5,6,219
134.29179839045148,10,1,5,6,220
134.2997378740398,10,1,5,6,221
134.29512122726896,10,1,5,6,222
134.29512122726896,10,1,5,6,223
134.2746295158407,10,1,5,6,224
133.90977358193197,10,1,5,6,225
134.2746295158407,10,1,5,6,226
134.2779504505409,10,1,5,6,227
134.2905044285914,10,1,5,6,228
134.29512122726896,10,1,5,6,229
134.29512122726896,10,1,5,6,230
134.29512122726896,10,1,5,6,231
134.2905044285914,10,1,5,6,232
134.2905044285914,10,1,5,6,233
134.28256658237225,10,1,5,6,234
134.2905044285914,10,1,5,6,235
134.28256658237225,10,1,5,6,236
134.2779504505409,10,1,5,6,237
134.2779504505409,10,1,5,6,238
134.28256658237225,10,1,5,6,239
134.2905044285914,10,1,5,6,240
134.28256658237225,10,1,5,6,241
134.2779504505409,10,1,5,6,242
134.27333416699835,10,1,5,6,243
134.27333416699835,10,1,5,7,245
161.33914235720638,10,1,5,7,246
161.33914235720638,10,1,5,7,247
160.81725568907532,10,1,5,7,248
160.81725568907532,10,1,5,7,249
160.8727703041413,10,1,5,7,250
160.8933418902525,10,1,5,7,251
160.8933418902525,10,1,5,7,252
160.83229117424537,10,1,5,7,253
160.83229117424537,10,1,5,7,254
160.83229117424537,10,1,5,7,255
160.3589961044635,10,1,5,7,0
160.3589961044635,10,1,5,7,1
160.3589961044635,10,1,5,7,2
160.8061989172129,10,1,5,7,3
160.86326221879847,10,1,5,7,4
160.8727703041413,10,1,5,7,5
161.318513681402,10,1,5,7,6
161.318513681402,10,1,5,7,7
160.8727703041413,10,1,5,7,8
160.8672397287974,10,1,5,7,9
160.8727703041413,10,1,5,7,10
160.82123280504877,10,1,5,7,11
160.82123280504877,10,1,5,7,12
160.82123280504877,10,1,5,7,13
160.82123280504877,10,1,5,7,14
160.82123280504877,10,1,5,7,15
160.8672397287974,10,1,5,7,16
161.26452880495864,10,1,5,7,17
161.318513681402,10,1,5,7,18
161.318513681402,10,1,5,7,19
160.88227932338293,10,1,5,7,20
160.830739149751,10,1,5,7,21
160.81570334790112,10,1,5,7,22
160.830739149751,10,1,5,7,23
160.81570334790112,10,1,5,7,24
160.85220284751392,10,1,5,7,25
160.85220284751392,10,1,5,7,26
160.85220284751392,10,1,5,7,27
160.78563988198627,10,1,5,7,28
160.78563988198627,10,1,5,7,29
160.78563988198627,10,1,5,7,30
160.34797009837314,10,1,5,7,31
160.34245682389596,10,1,5,7,32
160.34245682389596,10,1,5,7,33
159.50294735139343,10,1,5,7,34
161.30343461780186,10,1,5,7,35
161.31296740923906,10,1,5,7,36
161.31296740923906,10,1,5,7,37
161.30742095507748,10,1,5,7,38
161.30742095507748,10,1,5,7,39
161.30742095507748,10,1,5,7,40
160.8862567395779,10,1,5,7,41
160.86568411048802,10,1,5,7,42
160.86568411048802,10,1,5,7,43
160.86568411048802,10,1,5,7,44
160.85617803337152,10,1,5,7,45
160.8767477672953,10,1,5,7,46
160.86568411048802,10,1,5,7,47
160.8767477672953,10,1,5,7,48
161.3225011367692,10,1,5,7,49
161.3225011367692,10,1,5,7,50
160.8767477672953,10,1,5,7,51
160.85617803337152,10,1,5,7,52
160.8411427501302,10,1,5,7,53
160.85064691355888,10,1,5,7,54
160.85064691355888,10,1,5,7,55
160.85064691355888,10,1,5,7,56
160.85617803337152,10,1,5,7,57
160.8411427501302,10,1,5,7,58
160.79911388787633,10,1,5,7,59
160.79911388787633,10,1,5,7,60
161.31695369918347,10,1,5,7,61
161.31695369918347,10,1,5,7,62
160.8712160296188,10,1,5,7,63
160.37640297645675,10,1,5,7,64
160.8712160296188,10,1,5,7,65
160.8712160296188,10,1,5,7,66
160.8712160296188,10,1,5,7,67
160.8196780928036,10,1,5,7,68
160.8196780928036,10,1,5,7,69
160.8196780928036,10,1,5,7,70
161.30187431905216,10,1,5,7,71
161.31695369918347,10,1,5,7,72
161.31695369918347,10,1,5,7,73
160.8712160296188,10,1,5,7,74
160.8712160296188,10,1,5,7,75
160.36692441977294,10,1,5,7,76
161.2589833608821,10,1,5,7,77
161.2589833608821,10,1,5,7,78
161.33203580049062,10,1,5,7,79
161.33203580049062,10,1,5,7,80
161.2589833608821,10,1,5,7,81
160.8196780928036,10,1,5,7,82
160.8196780928036,10,1,5,7,83
160.88072402098078,10,1,5,7,84
160.88072402098078,10,1,5,7,85
160.3614091900018,10,1,5,7,86
160.3614091900018,10,1,5,7,87
159.97754717877447,10,1,5,8,89
138.8207230880415,10,1,5,8,90
138.8207230880415,10,1,5,8,91
138.28258105030514,10,1,5,8,92
138.8254972361144,10,1,5,8,93
138.28258105030514,10,1,5,8,94
138.28733669127257,10,1,5,8,95
138.28733669127257,10,1,5,8,96
138.29075285852414,10,1,5,8,97
139.25570748693588,10,1,5,8,98
138.8207230880415,10,1,5,8,99
138.8207230880415,10,1,5,8,100
138.29550934267408,10,1,5,8,101
137.7586083896065,10,1,5,8,102
137.7586083896065,10,1,5,8,103
137.7586083896065,10,1,5,8,104
138.29550934267408,10,1,5,8,105
138.8207230880415,10,1,5,8,106
138.8207230880415,10,1,5,8,107
138.8207230880415,10,1,5,8,108
138.81252028361973,10,1,5,8,109
138.40084784619086,10,1,5,8,110
138.277825253583,10,1,5,8,111
137.86106683103824,10,1,5,8,112
138.277825253583,10,1,5,8,113
138.8029732109774,10,1,5,8,114
138.8029732109774,10,1,5,8,115
138.27306930122177,10,1,5,8,116
137.86921372987723,10,1,5,8,117
137.86921372987723,10,1,5,8,118
138.277825253583,10,1,5,8,119
138.277825253583,10,1,5,8,120
137.7538703714276,10,1,5,8,121
137.7538703714276,10,1,5,8,122
138.277825253583,10,1,5,8,123
138.277825253583,10,1,5,8,124
138.277825253583,10,1,5,8,125
137.86921372987723,10,1,5,8,126
137.86921372987723,10,1,5,8,127
137.86921372987723,10,1,5,8,128
138.82415154689346,10,1,5,8,129
139.23311164225998,10,1,5,8,130
138.82415154689346,10,1,5,8,131
139.25435681689464,10,1,5,8,132
138.2859962186498,10,1,5,8,133
138.2859962186498,10,1,5,8,134
138.2859962186498,10,1,5,8,135
139.77086462995788,10,1,5,8,136
139.77086462995788,10,1,5,8,137
139.24133849009567,10,1,5,8,138
139.24133849009567,10,1,5,8,139
139.36358322362707,10,1,5,8,140
139.36358322362707,10,1,5,8,141
139.7791232519308,10,1,5,8,142
139.2591473317368,10,1,5,8,143
138.81117432292908,10,1,5,8,144
138.81117432292908,10,1,5,8,145
138.81117432292908,10,1,5,8,146
138.81117432292908,10,1,5,8,147
138.26831319333715,10,1,5,8,148
138.81117432292908,10,1,5,8,149
138.37363283571412,10,1,5,8,150
138.37363283571412,10,1,5,8,151
138.37363283571412,10,1,5,8,152
139.2153088828698,10,1,5,8,153
139.35055557381384,10,1,5,8,154
139.2153088828698,10,1,5,8,155
138.79342551369837,10,1,5,8,156
138.79342551369837,10,1,5,8,157
138.79342551369837,10,1,5,8,158
137.83869888748268,10,1,5,8,159
137.83869888748268,10,1,5,8,160
138.2553892956981,10,1,5,8,161
138.2859962186498,10,1,5,8,162
138.81937623981204,10,1,5,8,163
139.22353322583544,10,1,5,8,164
139.22353322583544,10,1,5,8,165
138.7048387811691,10,1,5,8,166
138.28941034700705,10,1,5,8,167
138.28123942316688,10,1,5,8,168
138.28941034700705,10,1,5,8,169
138.26831319333715,10,1,5,8,170
138.26831319333715,10,1,5,8,171
138.26831319333715,10,1,5,8,172
139.75299311187274,10,1,5,8,173
139.75299311187274,10,1,5,8,174
138.26355693004479,10,1,5,8,175
138.26355693004479,10,1,5,8,176
138.25063371996174,10,1,5,8,177
138.78387719271123,10,1,5,8,178
138.78387719271123,10,1,5,8,179
138.78387719271123,10,1,5,8,180
138.78387719271123,10,1,5,8,181
139.2105202887439,10,1,5,8,182
138.80982515747115,10,1,5,8,183
139.2105202887439,10,1,5,8,184
139.2105202887439,10,1,5,8,185
139.2105202887439,10,1,5,8,186
139.22353322583544,10,1,5,8,187
138.27648247219093,10,1,5,8,188
138.6823311319488,10,1,5,8,189
138.6823311319488,10,1,5,8,190
138.78387719271123,10,1,5,8,191
139.2105202887439,10,1,5,8,192
139.2105202887439,10,1,5,8,193
139.76469734384708,10,1,5,8,194
139.2105202887439,10,1,5,8,195
139.20573153833342,10,1,5,8,196
138.78865143111028,10,1,5,8,197
138.24587798901837,10,1,5,8,198
138.24587798901837,10,1,5,8,199
139.7433787772441,10,1,5,8,200
139.7433787772441,10,1,5,8,201
139.7433787772441,10,1,5,8,202
139.20573153833342,10,1,5,8,203
138.796850004586,10,1,5,8,204
138.6693690237161,10,1,5,8,205
138.26696810422297,10,1,5,8,206
138.6693690237161,10,1,5,8,207
138.796850004586,10,1,5,8,208
138.80162493330215,10,1,5,8,209
139.2187437830095,10,1,5,8,210
139.2187437830095,10,1,5,8,211
138.796850004586,10,1,5,8,212
138.796850004586,10,1,5,8,213
138.69529557926052,10,1,5,8,214
139.22696808410237,10,1,5,8,215
138.80504938244385,10,1,5,8,216
139.2187437830095,10,1,5,8,217
139.2187437830095,10,1,5,8,218
139.2187437830095,10,1,5,8,219
139.22696808410237,10,1,5,8,220
138.796850004586,10,1,5,8,221
138.26696810422297,10,1,5,8,222
137.8455014764801,10,1,5,8,223
138.26696810422297,10,1,5,8,224
139.21395418392967,10,1,5,8,225
139.21395418392967,10,1,5,8,226
138.79207492008942,10,1,5,8,227
138.12955415100228,10,1,5,8,228
138.12955415100228,10,1,5,8,229
138.25880051146038,10,1,5,8,230
138.26696810422297,10,1,5,8,231
138.26696810422297,10,1,5,8,232
138.36752553005655,10,1,5,8,233
138.26696810422297,10,1,5,8,234
138.26696810422297,10,1,5,8,235
137.8455014764801,10,1,5,8,236
137.8455014764801,10,1,5,8,237
138.26696810422297,10,1,5,8,238
138.81324956476826,10,1,5,8,239
139.20916442871234,10,1,5,8,240
139.75163318074755,10,1,5,8,241
139.20916442871234,10,1,5,8,242
138.79549736525615,10,1,5,8,243
138.79549736525615,10,1,5,8,244
138.79549736525615,10,1,5,8,245
139.22217763616968,10,1,5,8,246
138.79549736525615,10,1,5,8,247
138.2622106874622,10,1,5,8,248
138.13771266722077,10,1,5,8,249
138.2622106874622,10,1,5,8,250
138.69052374464232,10,1,5,8,251
138.69052374464232,10,1,5,8,252
138.79549736525615,10,1,5,8,253
138.79549736525615,10,1,5,8,254
138.80027345166687,10,1,5,8,255
138.80027345166687,10,1,5,8,0
138.80027345166687,10,1,5,8,1
138.79072112332784,10,1,5,8,2
139.21738703213018,10,1,5,8,3
138.26696810422297,10,1,5,8,4
138.36752553005655,10,1,5,8,5
138.26696810422297,10,1,5,8,6
138.36752553005655,10,1,5,8,7
137.82787447620046,10,1,5,8,8
138.67278868709857,10,1,5,8,9
138.23160986610196,10,1,5,8,10
138.67278868709857,10,1,5,8,11
138.24453032511045,10,1,5,8,12
138.66801723148552,10,1,5,8,13
138.66801723148552,10,1,5,8,14
138.66801723148552,10,1,5,8,15
138.25745311567104,10,1,5,8,16
138.25745311567104,10,1,5,8,17
138.6762073075243,10,1,5,8,18
139.21738703213018,10,1,5,8,19
139.21738703213018,10,1,5,8,20
138.68097960865822,10,1,5,8,21
138.27037823839066,10,1,5,8,22
137.84075856132029,10,1,5,8,23
137.84075856132029,10,1,5,8,24
138.25269538896515,10,1,5,8,25
138.25745311567104,10,1,5,8,26
138.25745311567104,10,1,5,8,27
137.27533346326314,10,1,5,8,28
137.27533346326314,10,1,5,8,29
137.28816517190816,10,1,5,8,30
139.2043745174739,10,1,5,8,31
139.2125962721004,10,1,6,2,33
151.39756523914335,10,1,6,2,34
151.39756523914335,10,1,6,2,35
151.33730947042721,10,1,6,2,36
151.33730947042721,10,1,6,2,37
151.4258758472917,10,1,6,2,38
151.43481783067534,10,1,6,2,39
151.43481783067534,10,1,6,2,40
151.43109207716233,10,1,6,2,41
151.43109207716233,10,1,6,2,42
151.50640551641357,10,1,6,2,43
151.50640551641357,10,1,6,2,44
151.50640551641357,10,1,6,2,45
151.40426861305207,10,1,6,2,46
150.97590347074325,10,1,6,2,47
150.96698901331922,10,1,6,2,48
150.96698901331922,10,1,6,2,49
151.40799450929381,10,1,6,2,50
151.40799450929381,10,1,6,2,51
151.3990551544965,10,1,6,2,52
150.96698901331922,10,1,6,2,53
151.3990551544965,10,1,6,2,54
151.40426861305207,10,1,6,2,55
151.40426861305207,10,1,6,2,56
151.40426861305207,10,1,6,2,57
151.3990551544965,10,1,6,2,58
151.40426861305207,10,1,6,2,59
151.40426861305207,10,1,6,2,60
151.40426861305207,10,1,6,2,61
151.40426861305207,10,1,6,2,62
151.40426861305207,10,1,6,2,63
151.40426861305207,10,1,6,2,64
151.3990551544965,10,1,6,2,65
150.97590347074325,10,1,6,2,66
150.97590347074325,10,1,6,2,67
151.40426861305207,10,1,6,2,68
151.41320889142148,10,1,6,2,69
151.40426861305207,10,1,6,2,70
150.90332662854053,10,1,6,2,71
150.90332662854053,10,1,6,2,72
150.90332662854053,10,1,6,2,73
151.41320889142148,10,1,6,2,74
151.41320889142148,10,1,6,2,75
151.41320889142148,10,1,6,2,76
151.4184231047487,10,1,6,2,77
151.4184231047487,10,1,6,2,78
151.4184231047487,10,1,6,2,79
151.4184231047487,10,1,6,2,80
151.41320889142148,10,1,6,2,81
151.4937319049808,10,1,6,2,82
151.41320889142148,10,1,6,2,83
151.40799450929381,10,1,6,2,84
150.96698901331922,10,1,6,2,85
151.40799450929381,10,1,6,2,86
151.38490397178708,10,1,6,2,87
151.38490397178708,10,1,6,2,88
151.38490397178708,10,1,6,2,89
151.51684212269163,10,1,6,2,90
151.51684212269163,10,1,6,2,91
151.49746000281792,10,1,6,2,92
151.48851536584385,10,1,6,2,93
151.48851536584385,10,1,6,2,94
151.48851536584385,10,1,6,2,95
150.97441814725346,10,1,6,2,96
150.97441814725346,10,1,6,2,97
151.40799450929381,10,1,6,2,98
151.51684212269163,10,1,6,2,99
151.51684212269163,10,1,6,2,100
151.41693474019505,10,1,6,2,101
151.40799450929381,10,1,6,2,102
151.3938415272333,10,1,6,2,103
151.3938415272333,10,1,6,2,104
151.3938415272333,10,1,6,2,105
151.49746000281792,10,1,6,2,106
151.49746000281792,10,1,6,2,107
151.42215004609437,10,1,6,2,108
151.40799450929381,10,1,6,2,109
151.40799450929381,10,1,6,2,110
150.9796185586732,10,1,6,2,111
150.9707041485802,10,1,6,2,112
150.9707041485802,10,1,6,2,113
150.9707041485802,10,1,6,2,114
151.40799450929381,10,1,6,2,115
151.40799450929381,10,1,6,2,116
151.40799450929381,10,1,6,2,117
151.38862773138894,10,1,6,2,118
151.40799450929381,10,1,6,2,119
151.38862773138894,10,1,6,2,120
151.38862773138894,10,1,6,2,121
151.38862773138894,10,1,6,2,122
151.38862773138894,10,1,6,2,123
151.3938415272333,10,1,6,2,124
151.3938415272333,10,1,6,2,125
151.38862773138894,10,1,6,2,126
151.38341376708988,10,1,6,2,127
150.95139330500913,10,1,6,2,128
150.86472323383438,10,1,6,2,129
150.86472323383438,10,1,6,2,130
151.38862773138894,10,1,6,2,131
151.38862773138894,10,1,6,3,133
128.80613597310517,10,1,6,3,134
127.44317652425107,10,1,6,3,135
127.44317652425107,10,1,6,3,136
127.45070088628123,10,1,6,3,137
127.45070088628123,10,1,6,3,138
127.45383546281177,10,1,6,3,139
127.45383546281177,10,1,6,3,140
127.45383546281177,10,1,6,3,141
127.44631114101942,10,1,6,3,142
127.45822598564675,10,1,6,3,143
128.39947390213663,10,1,6,3,144
128.40831891096087,10,1,6,3,145
128.78966022599377,10,1,6,3,146
128.78966022599377,10,1,6,3,147
127.43000919537265,10,1,6,3,148
127.43000919537265,10,1,6,3,149
127.43000919537265,10,1,6,3,150
127.9801702244592,10,1,6,3,151
127.9801702244592,10,1,6,3,152
129.16439586570314,10,1,6,3,153
129.16439586570314,10,1,6,3,154
128.3906283219648,10,1,6,3,155
128.3830500352872,10,1,6,3,156
128.37547249087424,10,1,6,3,157
128.37547249087424,10,1,6,3,158
128.37547249087424,10,1,6,3,159
128.3786278143473,10,1,6,3,160
128.7763528916037,10,1,6,3,161
128.3786278143473,10,1,6,3,162
128.7687526568706,10,1,6,3,163
128.7687526568706,10,1,6,3,164
128.7687526568706,10,1,6,3,165
127.41809928642672,10,1,6,3,166
127.41809928642672,10,1,6,3,167
127.43000919537265,10,1,6,3,168
127.43439844673284,10,1,6,3,169
127.43000919537265,10,1,6,3,170
127.41809928642672,10,1,6,3,171
127.41809928642672,10,1,6,3,172
128.3786278143473,10,1,6,3,173
128.3830500352872,10,1,6,3,174
128.3786278143473,10,1,6,3,175
128.3830500352872,10,1,6,3,176
127.43753122527256,10,1,6,3,177
129.3483807190794,10,1,6,3,178
127.43753122527256,10,1,6,3,179
128.38620531789164,10,1,6,3,180
127.43753122527256,10,1,6,3,181
128.38620531789164,10,1,6,3,182
128.3830500352872,10,1,6,3,183
128.3830500352872,10,1,6,3,184
128.37420545086349,10,1,6,3,185
128.36662947235024,10,1,6,3,186
127.41809928642672,10,1,6,3,187
127.41809928642672,10,1,6,3,188
127.41371052911197,10,1,6,3,189
128.35905423568593,10,1,6,3,190
127.41371052911197,10,1,6,3,191
128.36662947235024,10,1,6,3,192
128.36220774933633,10,1,6,3,193
129.31974797763272,10,1,6,3,194
128.36220774933633,10,1,6,3,195
128.75988195619678,10,1,6,3,196
127.41371052911197,10,1,6,3,197
127.41371052911197,10,1,6,3,198
127.41371052911197,10,1,6,3,199
128.36662947235024,10,1,6,3,200
128.36662947235024,10,1,6,3,201
128.37420545086349,10,1,6,3,202
128.37420545086349,10,1,6,3,203
128.37420545086349,10,1,6,3,204
128.36662947235024,10,1,6,3,205
127.42123026798204,10,1,6,3,206
127.41371052911197,10,1,6,3,207
127.41371052911197,10,1,6,3,208
127.96694632859294,10,1,6,3,209
128.36978294494284,10,1,6,3,210
128.75228403613477,10,1,6,3,211
128.75228403613477,10,1,6,3,212
128.35778588396403,10,1,6,3,213
128.3502122127465,10,1,6,3,214
127.7943640188771,10,1,6,3,215
127.7943640188771,10,1,6,3,216
128.35778588396403,10,1,6,3,217
128.743414334502,10,1,6,3,218
128.75544639160694,10,1,6,3,219
128.75988195619678,10,1,6,3,220
128.75988195619678,10,1,6,3,221
128.75988195619678,10,1,6,3,222
128.35778588396403,10,1,6,3,223
127.39302673731291,10,1,6,3,224
127.39302673731291,10,1,6,3,225
127.78996194099906,10,1,6,3,226
129.6894036617265,10,1,6,3,227
127.78996194099906,10,1,6,3,228
127.40054340914516,10,1,6,3,229
127.40054340914516,10,1,6,3,230
127.40932163038924,10,1,6,3,231
128.36220774933633,10,1,6,4,233
148.44090213402842,10,1,6,4,234
149.27886458655124,10,1,6,4,235
149.4002134074572,10,1,6,4,236
149.4002134074572,10,1,6,4,237
148.33274390289196,10,1,6,4,238
148.33274390289196,10,1,6,4,239
148.86332165194375,10,1,6,4,240
148.86332165194375,10,1,6,4,241
148.86332165194375,10,1,6,4,242
148.86332165194375,10,1,6,4,243
148.86332165194375,10,1,6,4,244
148.86332165194375,10,1,6,4,245
148.8494105356598,10,1,6,4,246
148.8494105356598,10,1,6,4,247
148.85819321552913,10,1,6,4,248
148.96539425719968,10,1,6,4,249
148.96539425719968,10,1,6,4,250
148.96539425719968,10,1,6,4,251
148.44966165454215,10,1,6,4,252
148.44966165454215,10,1,6,4,253
148.44966165454215,10,1,6,4,254
148.87723527888167,10,1,6,4,255
148.87723527888167,10,1,6,4,0
148.87723527888167,10,1,6,4,1
148.44966165454215,10,1,6,4,2
148.34514061570025,10,1,6,4,3
148.34514061570025,10,1,6,4,4
148.86332165194375,10,1,6,4,5
148.8808914071121,10,1,6,4,6
148.86697675517192,10,1,6,4,7
148.86697675517192,10,1,6,4,8
148.85819321552913,10,1,6,4,9
148.84793584826735,10,1,6,4,10
148.85819321552913,10,1,6,4,11
148.32252410400235,10,1,6,4,12
148.33127603590646,10,1,6,4,13
148.02406560732354,10,1,6,4,14
148.33127603590646,10,1,6,4,15
148.32252410400235,10,1,6,4,16
149.26858013060894,10,1,6,4,17
149.26858013060894,10,1,6,4,18
149.28619460385974,10,1,6,4,19
149.28619460385974,10,1,6,4,20
148.85306461426228,10,1,6,4,21
148.85306461426228,10,1,6,4,22
149.28253015713923,10,1,6,4,23
149.28253015713923,10,1,6,4,24
149.81272114480646,10,1,6,4,25
149.27738693622047,10,1,6,4,26
149.81272114480646,10,1,6,4,27
148.8618472460267,10,1,6,4,28
148.8618472460267,10,1,6,4,29
148.8618472460267,10,1,6,4,30
148.85306461426228,10,1,6,4,31
149.29133873524495,10,1,6,4,32
148.8618472460267,10,1,6,4,33
148.8618472460267,10,1,6,4,34
148.8618472460267,10,1,6,4,35
149.27224355010398,10,1,6,4,36
149.92796531046804,10,1,6,4,37
149.92796531046804,10,1,6,4,38
149.40388169321255,10,1,6,4,39
149.40388169321255,10,1,6,4,40
148.87576115467786,10,1,6,4,41
148.8618472460267,10,1,6,4,42
148.8618472460267,10,1,6,4,43
149.39358550936856,10,1,6,4,44
149.3987336839349,10,1,6,4,45
149.39358550936856,10,1,6,4,46
148.85306461426228,10,1,6,4,47
148.85306461426228,10,1,6,4,48
149.27738693622047,10,1,6,4,49
149.27738693622047,10,1,6,4,50
148.85671757218682,10,1,6,4,51
148.85671757218682,10,1,6,4,52
149.28619460385974,10,1,6,4,53
149.28619460385974,10,1,6,4,54
149.38991937665406,10,1,6,4,55
148.84793584826735,10,1,6,4,56
147.37491243158763,10,1,6,4,57
147.37491243158763,10,1,6,4,58
148.8618472460267,10,1,6,4,59
149.39358550936856,10,1,6,4,60
149.39358550936856,10,1,6,4,61
149.289857926438,10,1,6,4,62
149.289857926438,10,1,6,4,63
149.39358550936856,10,1,6,4,64
149.40239976810105,10,1,6,4,65
149.40239976810105,10,1,6,4,66
148.85671757218682,10,1,6,4,67
148.84793584826735,10,1,6,4,68
148.85671757218682,10,1,6,4,69
148.85671757218682,10,1,6,4,70
148.85671757218682,10,1,6,4,71
148.84280691766847,10,1,6,4,72
148.84280691766847,10,1,6,4,73
149.26709999891435,10,1,6,4,74
149.26709999891435,10,1,6,4,75
149.26709999891435,10,1,6,5,77
151.01128556512325,10,1,6,5,78
151.01128556512325,10,1,6,5,79
150.47976002658837,10,1,6,5,80
150.47976002658837,10,1,6,5,81
151.42064742757668,10,1,6,5,82
151.42064742757668,10,1,6,5,83
151.02540011103147,10,1,6,5,84
151.02540011103147,10,1,6,5,85
151.02019526856174,10,1,6,5,86
151.02019526856174,10,1,6,5,87
151.02019526856174,10,1,6,5,88
150.07590531585447,10,1,6,5,89
151.02019526856174,10,1,6,5,90
151.02019526856174,10,1,6,5,91
151.02019526856174,10,1,6,5,92
151.4191437622118,10,1,6,5,93
151.4191437622118,10,1,6,5,94
151.02019526856174,10,1,6,5,95
151.02019526856174,10,1,6,5,96
151.02019526856174,10,1,6,5,97
151.00087722182022,10,1,6,5,98
150.8943774135193,10,1,6,5,99
151.00087722182022,10,1,6,5,100
150.47457364365263,10,1,6,5,101
150.47457364365263,10,1,6,5,102
150.47457364365263,10,1,6,5,103
150.46938709452115,10,1,6,5,104
150.46938709452115,10,1,6,5,105
150.46938709452115,10,1,6,5,106
150.05670657310236,10,1,6,5,107
151.02019526856174,10,1,6,5,108
150.47976002658837,10,1,6,5,109
151.00087722182022,10,1,6,5,110
151.00087722182022,10,1,6,5,111
151.02019526856174,10,1,6,5,112
151.5423965807002,10,1,6,5,113
151.5423965807002,10,1,6,5,114
151.55656023022917,10,1,6,5,115
151.00087722182022,10,1,6,5,116
151.00608147688502,10,1,6,5,117
151.00608147688502,10,1,6,5,118
151.43329589212797,10,1,6,5,119
151.43329589212797,10,1,6,5,120
150.99567280005473,10,1,6,5,121
150.59862269391886,10,1,6,5,122
150.59862269391886,10,1,6,5,123
151.00087722182022,10,1,6,5,124
151.00087722182022,10,1,6,5,125
151.00087722182022,10,1,6,5,126
151.00087722182022,10,1,6,5,127
151.973375203006,10,1,6,5,128
151.00087722182022,10,1,6,5,129
150.5882408780174,10,1,6,5,130
150.46938709452115,10,1,6,5,131
150.46938709452115,10,1,6,5,132
150.46938709452115,10,1,6,5,133
150.46938709452115,10,1,6,5,134
150.46938709452115,10,1,6,5,135
150.4553253132732,10,1,6,5,136
150.4553253132732,10,1,6,5,137
150.4553253132732,10,1,6,5,138
151.0149902591734,10,1,6,5,139
151.0149902591734,10,1,6,5,140
150.47457364365263,10,1,6,5,141
150.47457364365263,10,1,6,5,142
150.4782639468387,10,1,6,5,143
150.8750753828936,10,1,6,5,144
151.018693815769,10,1,6,5,145
151.00978508299247,10,1,6,5,146
151.0238999132649,10,1,6,5,147
151.00978508299247,10,1,6,5,148
151.0045797401448,10,1,6,5,149
151.0045797401448,10,1,6,5,150
151.0045797401448,10,1,6,5,151
150.99937423075636,10,1,6,5,152
150.99567280005473,10,1,6,5,153
150.99567280005473,10,1,6,5,154
150.99567280005473,10,1,6,5,155
151.0045797401448,10,1,6,5,156
151.0045797401448,10,1,6,5,157
151.00978508299247,10,1,6,5,158
150.99937423075636,10,1,6,5,159
151.0045797401448,10,1,6,5,160
150.99937423075636,10,1,6,5,161
150.99937423075636,10,1,6,5,162
150.45901349817288,10,1,6,5,163
150.9852634569251,10,1,6,5,164
150.98156306378849,10,1,6,5,165
150.9852634569251,10,1,6,5,166
150.99046821171441,10,1,6,5,167
151.94869753151895,10,1,6,5,168
151.40348674779693,10,1,6,5,169
151.94869753151895,10,1,6,5,170
151.40348674779693,10,1,6,5,171
151.38041234601482,10,1,6,5,172
151.38041234601482,10,1,6,5,173
151.38041234601482,10,1,6,5,174
151.3893394411156,10,1,6,5,175
151.40348674779693,10,1,6,6,177
262.3564005209587,10,1,6,6,178
262.3564005209587,10,1,6,6,179
262.7561677185208,10,1,6,6,180
262.7535561756666,10,1,6,6,181
262.7535561756666,10,1,6,6,182
262.3564005209587,10,1,6,6,183
262.3564005209587,10,1,6,6,184
262.32284314650144,10,1,6,6,185
262.3073724149413,10,1,6,6,186
262.3073724149413,10,1,6,6,187
262.3164119249027,10,1,6,6,188
262.3164119249027,10,1,6,6,189
262.3164119249027,10,1,6,6,190
262.33188425604703,10,1,6,6,191
262.3628334596169,10,1,6,6,192
262.36544265138417,10,1,6,6,193
262.36544265138417,10,1,6,6,194
262.36544265138417,10,1,6,6,195
262.33188425604703,10,1,6,6,196
262.72256208503813,10,1,6,6,197
262.32284314650144,10,1,6,6,198
262.33188425604703,10,1,6,6,199
262.33188425604703,10,1,6,6,200
262.7380583723266,10,1,6,6,201
262.7380583723266,10,1,6,6,202
262.7380583723266,10,1,6,6,203
262.7135085790084,10,1,6,6,204
262.7135085790084,10,1,6,6,205
262.70445478321597,10,1,6,6,206
262.679910731453,10,1,6,6,207
262.679910731453,10,1,6,6,208
262.3073724149413,10,1,6,6,209
262.30476005986174,10,1,6,6,210
262.3073724149413,10,1,6,6,211
262.69540069787956,10,1,6,6,212
262.69540069787956,10,1,6,6,213
262.27382650723854,10,1,6,6,214
262.27382650723854,10,1,6,6,215
262.3138017477002,10,1,6,6,216
262.679910731453,10,1,6,6,217
262.3138017477002,10,1,6,6,218
262.3138017477002,10,1,6,6,219
262.30476005986174,10,1,6,6,220
262.30476005986174,10,1,6,6,221
262.30476005986174,10,1,6,6,222
262.7108921791632,10,1,6,6,223
262.3138017477002,10,1,6,6,224
262.3138017477002,10,1,6,6,225
262.3138017477002,10,1,6,6,226
262.3138017477002,10,1,6,6,227
262.3138017477002,10,1,6,6,228
262.30476005986174,10,1,6,6,229
262.30476005986174,10,1,6,6,230
262.30476005986174,10,1,6,6,231
262.30476005986174,10,1,6,6,232
262.30476005986174,10,1,6,6,233
262.30476005986174,10,1,6,6,234
262.70445478321597,10,1,6,6,235
262.70445478321597,10,1,6,6,236
262.2957180832047,10,1,6,6,237
262.28929252729256,10,1,6,6,238
262.28025215004226,10,1,6,6,239
262.28025215004226,10,1,6,6,240
262.28025215004226,10,1,6,6,241
262.28025215004226,10,1,6,6,242
262.28025215004226,10,1,6,6,243
262.28025215004226,10,1,6,6,244
262.6863463232181,10,1,6,6,245
262.2866758179475,10,1,6,6,246
262.2866758179475,10,1,6,6,247
262.2866758179475,10,1,6,6,248
262.6772916594504,10,1,6,6,249
262.6863463232181,10,1,6,6,250
262.6863463232181,10,1,6,6,251
262.6708579583292,10,1,6,6,252
262.6708579583292,10,1,6,6,253
262.6708579583292,10,1,6,6,254
262.692779937027,10,1,6,6,255
262.2957180832047,10,1,6,6,0
262.7018362026186,10,1,6,6,1
262.7018362026186,10,1,6,6,2
262.7018362026186,10,1,6,6,3
262.6863463232181,10,1,6,6,4
262.6618048960399,10,1,6,6,5
262.2957180832047,10,1,6,6,6
262.2957180832047,10,1,6,6,7
262.6772916594504,10,1,6,6,8
262.6772916594504,10,1,6,6,9
262.6772916594504,10,1,6,6,10
262.6772916594504,10,1,6,6,11
262.6618048960399,10,1,6,6,12
262.27121148413266,10,1,6,6,13
262.27121148413266,10,1,6,6,14
262.2776332643087,10,1,6,6,15
262.6527515448037,10,1,6,6,16
262.6436979048394,10,1,6,6,17
262.6527515448037,10,1,6,6,18
262.6436979048394,10,1,6,6,19
262.2376696630469,10,1,6,7,21
165.06402188219135,10,1,6,7,22
165.05429072772262,10,1,6,7,23
165.06402188219135,10,1,6,7,24
165.05429072772262,10,1,6,7,25
165.5635290504683,10,1,6,7,26
165.0331800753002,10,1,6,7,27
165.49872206400585,10,1,6,7,28
165.0331800753002,10,1,6,7,29
165.49872206400585,10,1,6,7,30
165.5537694997284,10,1,6,7,31
165.5537694997284,10,1,6,7,32
165.5537694997284,10,1,6,7,33
165.5635290504683,10,1,6,7,34
165.5635290504683,10,1,6,7,35
165.06402188219135,10,1,6,7,36
165.06402188219135,10,1,6,7,37
165.0485995873389,10,1,6,7,38
165.04290826587942,10,1,6,7,39
165.04290826587942,10,1,6,7,40
165.05832973518025,10,1,6,7,41
165.05832973518025,10,1,6,7,42
165.55781997285024,10,1,6,7,43
165.55781997285024,10,1,6,7,44
165.04290826587942,10,1,6,7,45
165.04290826587942,10,1,6,7,46
165.04694489818039,10,1,6,7,47
165.11071438337075,10,1,6,7,48
165.11071438337075,10,1,6,7,49
165.0485995873389,10,1,6,7,50
165.0485995873389,10,1,6,7,51
165.05832973518025,10,1,6,7,52
165.05832973518025,10,1,6,7,53
165.05832973518025,10,1,6,7,54
165.56757946771566,10,1,6,7,55
165.05832973518025,10,1,6,7,56
165.05832973518025,10,1,6,7,57
165.0485995873389,10,1,6,7,58
165.0485995873389,10,1,6,7,59
165.05263740713085,10,1,6,7,60
165.05263740713085,10,1,6,7,61
165.48160099115358,10,1,6,7,62
165.48160099115358,10,1,6,7,63
165.55781997285024,10,1,6,7,64
165.55781997285024,10,1,6,7,65
165.04694489818039,10,1,6,7,66
165.03152508028256,10,1,6,7,67
165.04694489818039,10,1,6,7,68
165.08348704484297,10,1,6,7,69
165.0891810246591,10,1,6,7,70
165.0891810246591,10,1,6,7,71
165.0891810246591,10,1,6,7,72
165.0891810246591,10,1,6,7,73
165.0891810246591,10,1,6,7,74
165.08348704484297,10,1,6,7,75
165.08348704484297,10,1,6,7,76
165.08348704484297,10,1,6,7,77
165.07779288392584,10,1,6,7,78
165.07779288392584,10,1,6,7,79
165.05832973518025,10,1,6,7,80
165.05832973518025,10,1,6,7,81
165.5182363856168,10,1,6,7,82
165.5182363856168,10,1,6,7,83
165.05263740713085,10,1,6,7,84
165.05263740713085,10,1,6,7,85
165.0623674991532,10,1,6,7,86
165.5773399163183,10,1,6,7,87
165.53370466699323,10,1,6,7,88
165.53370466699323,10,1,6,7,89
165.07779288392584,10,1,6,7,90
165.07779288392584,10,1,6,7,91
165.07779288392584,10,1,6,7,92
165.58305101361483,10,1,6,7,93
165.59686367513126,10,1,6,7,94
165.59686367513126,10,1,6,7,95
165.08348704484297,10,1,6,7,96
165.08348704484297,10,1,6,7,97
165.56757946771566,10,1,6,7,98
165.56757946771566,10,1,6,7,99
165.08348704484297,10,1,6,7,100
165.08348704484297,10,1,6,7,101
165.09322105322346,10,1,6,7,102
165.09322105322346,10,1,6,7,103
165.53370466699323,10,1,6,7,104
165.07779288392584,10,1,6,7,105
165.07779288392584,10,1,6,7,106
165.07779288392584,10,1,6,7,107
165.5773399163183,10,1,6,7,108
165.5773399163183,10,1,6,7,109
165.50681848068794,10,1,6,7,110
165.0720985420452,10,1,6,7,111
165.0623674991532,10,1,6,7,112
165.0623674991532,10,1,6,7,113
165.50681848068794,10,1,6,7,114
165.51252752383073,10,1,6,7,115
165.51252752383073,10,1,6,7,116
165.51252752383073,10,1,6,7,117
165.58138902990453,10,1,6,7,118
165.06640401933856,10,1,6,7,119
164.60813228115762,10,1,6,8,121
141.9844526163876,10,1,6,8,122
141.54835492637488,10,1,6,8,123
141.54835492637488,10,1,6,8,124
141.54835492637488,10,1,6,8,125
141.5566991547089,10,1,6,8,126
141.03818919224187,10,1,6,8,127
141.5351296091313,10,1,6,8,128
141.5351296091313,10,1,6,8,129
141.9662880452026,10,1,6,8,130
141.9662880452026,10,1,6,8,131
141.9662880452026,10,1,6,8,132
141.56158263080087,10,1,6,8,133
141.44948335363762,10,1,6,8,134
141.56158263080087,10,1,6,8,135
141.97955455247163,10,1,6,8,136
141.97955455247163,10,1,6,8,137
141.9711853984222,10,1,6,8,138
141.5434721588627,10,1,6,8,139
141.43626612391867,10,1,6,8,140
141.43626612391867,10,1,6,8,141
141.55181552366307,10,1,6,8,142
141.55181552366307,10,1,6,8,143
141.9928234545446,10,1,6,8,144
141.54835492637488,10,1,6,8,145
141.97465633313877,10,1,6,8,146
141.55181552366307,10,1,6,8,147
141.97465633313877,10,1,6,8,148
141.9662880452026,10,1,6,8,149
141.9662880452026,10,1,6,8,150
141.5650441983827,10,1,6,8,151
141.5650441983827,10,1,6,8,152
142.93412141136386,10,1,6,8,153
142.93412141136386,10,1,6,8,154
141.9662880452026,10,1,6,8,155
141.4181730864141,10,1,6,8,156
141.4181730864141,10,1,6,8,157
141.94812713421268,10,1,6,8,158
141.94812713421268,10,1,6,8,159
141.94812713421268,10,1,6,8,160
141.5385892364823,10,1,6,8,161
141.96139053665215,10,1,6,8,162
141.96139053665215,10,1,6,8,163
141.96139053665215,10,1,6,8,164
141.96139053665215,10,1,6,8,165
141.96139053665215,10,1,6,8,166
141.55181552366307,10,1,6,8,167
141.55181552366307,10,1,6,8,168
141.55181552366307,10,1,6,8,169
142.0763324019641,10,1,6,8,170
142.0763324019641,10,1,6,8,171
141.95649287288904,10,1,6,8,172
141.002103006777,10,1,6,8,173
141.52048296770604,10,1,6,8,174
141.002103006777,10,1,6,8,175
140.9889292302317,10,1,6,8,176
140.98406536779225,10,1,6,8,177
140.98406536779225,10,1,6,8,178
140.97575783093689,10,1,6,8,179
141.53370615935145,10,1,6,8,180
140.9972384384052,10,1,6,8,181
140.9972384384052,10,1,6,8,182
140.9972384384052,10,1,6,8,183
141.40841623639628,10,1,6,8,184
141.40841623639628,10,1,6,8,185
141.40841623639628,10,1,6,8,186
140.9972384384052,10,1,6,8,187
141.42162895690825,10,1,6,8,188
140.9972384384052,10,1,6,8,189
140.9972384384052,10,1,6,8,190
140.9972384384052,10,1,6,8,191
141.9383330731477,10,1,6,8,192
141.94323018118462,10,1,6,8,193
141.9383330731477,10,1,6,8,194
141.52048296770604,10,1,6,8,195
141.52048296770604,10,1,6,8,196
141.94323018118462,10,1,6,8,197
141.95159505403132,10,1,6,8,198
141.94323018118462,10,1,6,8,199
141.51905600063418,10,1,6,8,200
141.4167495920608,10,1,6,8,201
141.39032795146252,10,1,6,8,202
141.39032795146252,10,1,6,8,203
141.39032795146252,10,1,6,8,204
140.9792013513914,10,1,6,8,205
140.97433718114655,10,1,6,8,206
140.97433718114655,10,1,6,8,207
140.97433718114655,10,1,6,8,208
141.3986587686794,10,1,6,8,209
140.96947285717485,10,1,6,8,210
141.49749837890195,10,1,6,8,211
141.49749837890195,10,1,6,8,212
141.49749837890195,10,1,6,8,213
140.96603136378192,10,1,6,8,214
140.5306425104649,10,1,6,8,215
140.5306425104649,10,1,6,8,216
141.49261625584293,10,1,6,8,217
141.92017693326724,10,1,6,8,218
142.4610839748235,10,1,6,8,219
141.9250734854216,10,1,6,8,220
142.46947788173574,10,1,6,8,221
141.9250734854216,10,1,6,8,222
141.93343581022012,10,1,6,8,223
141.49749837890195,10,1,6,8,224
141.49749837890195,10,1,6,8,225
141.49749837890195,10,1,6,8,226
142.88769180558828,10,1,6,8,227
142.88769180558828,10,1,6,8,228
141.49749837890195,10,1,6,8,229
141.49749837890195,10,1,6,8,230
141.49749837890195,10,1,6,8,231
141.0949057722064,10,1,6,8,232
140.9875088396393,10,1,6,8,233
140.9875088396393,10,1,6,8,234
141.93343581022012,10,1,6,8,235
141.93343581022012,10,1,6,8,236
141.93343581022012,10,1,6,8,237
141.94669708019717,10,1,6,8,238
141.95159505403132,10,1,6,8,239
141.95159505403132,10,1,6,8,240
141.51905600063418,10,1,6,8,241
141.51905600063418,10,1,6,8,242
141.51071776715725,10,1,6,8,243
141.9417989515047,10,1,6,8,244
142.3798643953196,10,1,6,8,245
142.3798643953196,10,1,6,8,246
141.40699039930595,10,1,6,8,247
140.99581713912525,10,1,6,8,248
140.9909512488659,10,1,6,8,249
140.98264380947987,10,1,6,8,250
140.95144051015018,10,1,6,8,251
140.96460837959353,10,1,6,8,252
140.95144051015018,10,1,6,8,253
140.96460837959353,10,1,6,8,254
142.43794789238416,10,1,6,8,255
142.43794789238416,10,1,6,8,0
142.43794789238416,10,1,6,8,1
141.9236408201649,10,1,6,8,2
141.9236408201649,10,1,6,8,3
141.9236408201649,10,1,6,8,4
142.0252839313557,10,1,6,8,5
141.0671221470933,10,1,6,8,6
140.00566561952618,10,1,6,8,7
140.00566561952618,10,1,6,8,8
140.95144051015018,10,1,6,8,9
141.9236408201649,10,1,6,8,10
140.95144051015018,10,1,6,8,11
140.95144051015018,10,1,6,8,12
140.95144051015018,10,1,6,8,13
141.50928845656262,10,1,6,8,14
141.50928845656262,10,1,6,8,15
140.96460837959353,10,1,6,8,16
140.96460837959353,10,1,6,8,17
141.93200223001685,10,1,6,8,18
141.93200223001685,10,1,6,8,19
141.91874309327326,10,1,6,8,20
141.91038336501543,10,1,6,8,21
141.91038336501543,10,1,6,8,22
141.90548634915385,10,1,6,8,23
141.91874309327326,10,1,6,8,24
142.44142286353332,10,1,6,8,25
142.87289932848088,10,1,6,8,26
142.87289932848088,10,1,6,8,27
142.45472967459108,10,1,6,8,28
141.90548634915385,10,1,6,8,29
141.90548634915385,10,1,6,8,30
141.48285154751622,10,1,6,8,31
141.49606880929028,10,1,6,8,32
141.47796896248374,10,1,6,8,33
140.95974374851983,10,1,6,8,34
140.95974374851983,10,1,6,8,35
141.9271036374576,10,1,6,8,36
141.9271036374576,10,1,6,8,37
141.91874309327326,10,1,6,8,38
141.91874309327326,10,1,6,8,39
141.49606880929028,10,1,6,8,40
141.49606880929028,10,1,6,8,41
141.90894717635186,10,1,6,8,42
141.90894717635186,10,1,6,8,43
141.91038336501543,10,1,6,8,44
141.91384521196295,10,1,6,8,45
141.91384521196295,10,1,6,8,46
141.91384521196295,10,1,6,8,47
141.79217656765192,10,1,6,8,48
141.79217656765192,10,1,6,8,49
142.86448397645626,10,1,6,8,50
142.86448397645626,10,1,6,8,51
142.33852436175616,10,1,6,8,52
141.90058917895905,10,1,6,8,53
141.47796896248374,10,1,6,8,54
141.47796896248374,10,1,6,8,55
141.90058917895905,10,1,6,8,56
141.90058917895905,10,1,6,8,57
141.48630206738892,10,1,6,8,58
141.48630206738892,10,1,6,8,59
141.48630206738892,10,1,6,8,60
141.8873355378229,10,1,6,8,61
141.4730862236953,10,1,6,8,62
141.8873355378229,10,1,6,8,63
141.90894717635186,10,1,7,2,65
149.25027559075062,10,1,7,2,66
149.25027559075062,10,1,7,2,67
149.25027559075062,10,1,7,2,68
149.7602691860039,10,1,7,2,69
149.7602691860039,10,1,7,2,70
149.31763349536672,10,1,7,2,71
149.31763349536672,10,1,7,2,72
149.74476089127754,10,1,7,2,73
149.74476089127754,10,1,7,2,74
149.74476089127754,10,1,7,2,75
149.73959112614847,10,1,7,2,76
149.7255683729204,10,1,7,2,77
149.7255683729204,10,1,7,2,78
149.71522984416873,10,1,7,2,79
149.72408083186056,10,1,7,2,80
149.72408083186056,10,1,7,2,81
149.80598816778343,10,1,7,2,82
149.80598816778343,10,1,7,2,83
149.71891040121662,10,1,7,2,84
149.71891040121662,10,1,7,2,85
149.63435970830974,10,1,7,2,86
149.62919203158998,10,1,7,2,87
149.6255146353836,10,1,7,2,88
149.62919203158998,10,1,7,2,89
149.69087343481903,10,1,7,2,90
149.69455079298123,10,1,7,2,91
149.69087343481903,10,1,7,2,92
149.68053507881504,10,1,7,2,93
149.68053507881504,10,1,7,2,94
149.68053507881504,10,1,7,2,95
150.12850228795398,10,1,7,2,96
149.69455079298123,10,1,7,2,97
149.69455079298123,10,1,7,2,98
149.68938061556602,10,1,7,2,99
149.61001385666495,10,1,7,2,100
149.68938061556602,10,1,7,2,101
150.13368763235664,10,1,7,2,102
150.2210490407285,10,1,7,2,103
150.2210490407285,10,1,7,2,104
149.62919203158998,10,1,7,2,105
149.62919203158998,10,1,7,2,106
149.70339811339963,10,1,7,2,107
149.70856904186056,10,1,7,2,108
149.70339811339963,10,1,7,2,109
150.2158606790218,10,1,7,2,110
150.11444621106094,10,1,7,2,111
150.11444621106094,10,1,7,2,112
149.70339811339963,10,1,7,2,113
149.70339811339963,10,1,7,2,114
150.12331677746923,10,1,7,2,115
150.12331677746923,10,1,7,2,116
150.12331677746923,10,1,7,2,117
149.6048465990017,10,1,7,2,118
150.2158606790218,10,1,7,2,119
150.2017964230272,10,1,7,2,120
150.2017964230272,10,1,7,2,121
150.2017964230272,10,1,7,2,122
150.12331677746923,10,1,7,2,123
150.2158606790218,10,1,7,2,124
149.59967917583563,10,1,7,2,125
149.68421027255448,10,1,7,2,126
149.67903976407212,10,1,7,2,127
149.68421027255448,10,1,7,2,128
149.67903976407212,10,1,7,2,129
150.11444621106094,10,1,7,2,130
149.67019606029,10,1,7,2,131
149.67019606029,10,1,7,2,132
149.59967917583563,10,1,7,2,133
149.59967917583563,10,1,7,2,134
149.61368800686088,10,1,7,2,135
149.788975035645,10,1,7,2,136
149.788975035645,10,1,7,2,137
149.788975035645,10,1,7,2,138
149.69305575953967,10,1,7,2,139
149.69305575953967,10,1,7,2,140
150.13737464302935,10,1,7,2,141
150.13737464302935,10,1,7,2,142
149.69305575953967,10,1,7,2,143
149.69305575953967,10,1,7,2,144
149.6982270192508,10,1,7,2,145
150.12331677746923,10,1,7,2,146
150.13218821315584,10,1,7,2,147
150.13218821315584,10,1,7,2,148
150.13218821315584,10,1,7,2,149
150.12331677746923,10,1,7,2,150
150.14624786767234,10,1,7,2,151
150.14624786767234,10,1,7,2,152
150.14624786767234,10,1,7,2,153
150.1410605182113,10,1,7,2,154
149.71224630104038,10,1,7,2,155
150.1410605182113,10,1,7,2,156
149.71224630104038,10,1,7,2,157
150.14624786767234,10,1,7,2,158
149.6982270192508,10,1,7,2,159
150.13218821315584,10,1,7,2,160
150.13218821315584,10,1,7,2,161
150.58725272649698,10,1,7,2,162
150.6623511641277,10,1,7,2,163
150.6623511641277,10,1,7,3,165
125.58494388066946,10,1,7,3,166
125.58060457812842,10,1,7,3,167
125.58060457812842,10,1,7,3,168
125.58494388066946,10,1,7,3,169
125.58494388066946,10,1,7,3,170
125.58494388066946,10,1,7,3,171
125.57318333861994,10,1,7,3,172
125.57318333861994,10,1,7,3,173
125.57318333861994,10,1,7,3,174
125.58060457812842,10,1,7,3,175
125.58060457812842,10,1,7,3,176
125.57752187188103,10,1,7,3,177
125.57318333861994,10,1,7,3,178
125.57318333861994,10,1,7,3,179
125.58494388066946,10,1,7,3,180
125.58494388066946,10,1,7,3,181
126.53297840257814,10,1,7,3,182
126.53297840257814,10,1,7,3,183
125.58494388066946,10,1,7,3,184
125.58494388066946,10,1,7,3,185
125.58494388066946,10,1,7,3,186
125.6041307834496,10,1,7,3,187
125.5892830443903,10,1,7,3,188
125.6041307834496,10,1,7,3,189
125.5892830443903,10,1,7,3,190
125.57318333861994,10,1,7,3,191
125.57318333861994,10,1,7,3,192
125.57318333861994,10,1,7,3,193
125.57318333861994,10,1,7,3,194
125.58060457812842,10,1,7,3,195
125.58060457812842,10,1,7,3,196
126.14165790060312,10,1,7,3,197
126.14165790060312,10,1,7,3,198
126.13729936207339,10,1,7,3,199
125.59236661688804,10,1,7,3,200
125.58494388066946,10,1,7,3,201
125.58060457812842,10,1,7,3,202
125.58060457812842,10,1,7,3,203
125.5762651368725,10,1,7,3,204
125.57318333861994,10,1,7,3,205
125.57318333861994,10,1,7,3,206
125.55708688179396,10,1,7,3,207
125.17079677193463,10,1,7,3,208
125.55708688179396,10,1,7,3,209
125.56884466661539,10,1,7,3,210
125.56884466661539,10,1,7,3,211
125.56450585597273,10,1,7,3,212
125.56450585597273,10,1,7,3,213
125.58060457812842,10,1,7,3,214
125.58802654490074,10,1,7,3,215
126.13294068421385,10,1,7,3,216
126.13294068421385,10,1,7,3,217
125.5762651368725,10,1,7,3,218
125.5762651368725,10,1,7,3,219
126.1211292747998,10,1,7,3,220
126.1211292747998,10,1,7,3,221
125.58368633422715,10,1,7,3,222
125.56450585597273,10,1,7,3,223
125.56450585597273,10,1,7,3,224
125.56450585597273,10,1,7,3,225
125.56450585597273,10,1,7,3,226
125.56450585597273,10,1,7,3,227
125.57192555700705,10,1,7,3,228
125.5762651368725,10,1,7,3,229
125.5762651368725,10,1,7,3,230
126.53171210570173,10,1,7,3,231
126.53171210570173,10,1,7,3,232
126.12858186713034,10,1,7,3,233
125.5762651368725,10,1,7,3,234
125.5762651368725,10,1,7,3,235
125.5762651368725,10,1,7,3,236
125.58368633422715,10,1,7,3,237
125.5762651368725,10,1,7,3,238
125.58368633422715,10,1,7,3,239
125.58368633422715,10,1,7,3,240
125.58368633422715,10,1,7,3,241
125.58368633422715,10,1,7,3,242
125.55274870164638,10,1,7,3,243
125.16647171513709,10,1,7,3,244
125.55274870164638,10,1,7,3,245
125.55274870164638,10,1,7,3,246
125.57192555700705,10,1,7,3,247
125.57192555700705,10,1,7,3,248
125.5675858386373,10,1,7,3,249
125.5675858386373,10,1,7,3,250
125.57192555700705,10,1,7,3,251
125.57192555700705,10,1,7,3,252
125.57192555700705,10,1,7,3,253
125.56016690679716,10,1,7,3,254
125.56016690679716,10,1,7,3,255
125.56016690679716,10,1,7,3,0
125.56016690679716,10,1,7,3,1
125.56016690679716,10,1,7,3,2
125.56016690679716,10,1,7,3,3
125.56016690679716,10,1,7,3,4
125.56016690679716,10,1,7,3,5
125.56324598186858,10,1,7,3,6
125.56016690679716,10,1,7,3,7
125.56324598186858,10,1,7,4,9
145.16739233744954,10,1,7,4,10
145.16739233744954,10,1,7,4,11
145.16237566657375,10,1,7,4,12
145.16237566657375,10,1,7,4,13
145.69872441827553,10,1,7,4,14
145.69872441827553,10,1,7,4,15
145.71236877445034,10,1,7,4,16
145.58936029499193,10,1,7,4,17
145.1759697949004,10,1,7,4,18
145.16237566657375,10,1,7,4,19
145.16237566657375,10,1,7,4,20
145.16237566657375,10,1,7,4,21
145.1759697949004,10,1,7,4,22
145.16237566657375,10,1,7,4,23
145.1759697949004,10,1,7,4,24
145.1759697949004,10,1,7,4,25
145.1759697949004,10,1,7,4,26
145.1759697949004,10,1,7,4,27
145.1759697949004,10,1,7,4,28
145.1759697949004,10,1,7,4,29
144.62727708180407,10,1,7,4,30
144.6172802471505,10,1,7,4,31
144.62727708180407,10,1,7,4,32
144.74591961839664,10,1,7,4,33
145.17095223474772,10,1,7,4,34
145.17095223474772,10,1,7,4,35
145.69872441827553,10,1,7,4,36
145.69872441827553,10,1,7,4,37
145.15735883577543,10,1,7,4,38
145.15735883577543,10,1,7,4,39
145.58432870754868,10,1,7,4,40
145.59292961121815,10,1,7,4,41
145.70229641570825,10,1,7,4,42
145.70229641570825,10,1,7,4,43
145.2838692656144,10,1,7,4,44
145.2838692656144,10,1,7,4,45
145.15234184517612,10,1,7,4,46
145.70733267531938,10,1,7,4,47
145.70733267531938,10,1,7,4,48
145.70733267531938,10,1,7,4,49
145.14376789504792,10,1,7,4,50
145.14376789504792,10,1,7,4,51
145.15234184517612,10,1,7,4,52
145.68004789439576,10,1,7,4,53
145.68004789439576,10,1,7,4,54
144.62727708180407,10,1,7,4,55
144.60374013206334,10,1,7,4,56
144.60374013206334,10,1,7,4,57
144.70881156079872,10,1,7,4,58
144.72236125543705,10,1,7,4,59
145.14732469489752,10,1,7,4,60
145.14732469489752,10,1,7,4,61
145.13875163375465,10,1,7,4,62
144.71381329456767,10,1,7,4,63
145.13875163375465,10,1,7,4,64
145.15234184517612,10,1,7,4,65
145.68361783597823,10,1,7,4,66
145.68361783597823,10,1,7,4,67
145.26022334776502,10,1,7,4,68
145.14732469489752,10,1,7,4,69
145.26022334776502,10,1,7,4,70
145.2788476426837,10,1,7,4,71
145.2788476426837,10,1,7,4,72
144.727363716465,10,1,7,4,73
144.72236125543705,10,1,7,4,74
144.727363716465,10,1,7,4,75
145.5606355974657,10,1,7,4,76
145.5606355974657,10,1,7,4,77
145.56566677378902,10,1,7,4,78
145.14732469489752,10,1,7,4,79
145.14732469489752,10,1,7,4,80
145.14732469489752,10,1,7,4,81
145.14732469489752,10,1,7,4,82
145.66997814327033,10,1,7,4,83
145.66997814327033,10,1,7,4,84
145.6922234155338,10,1,7,4,85
146.09531159814625,10,1,7,4,86
145.6922234155338,10,1,7,4,87
145.6922234155338,10,1,7,4,88
145.1337352128705,10,1,7,4,89
145.57426505197117,10,1,7,4,90
145.57426505197117,10,1,7,4,91
145.58286417202157,10,1,7,4,92
145.58286417202157,10,1,7,4,93
145.15589859543962,10,1,7,4,94
144.74446392245537,10,1,7,4,95
144.74446392245537,10,1,7,4,96
144.74446392245537,10,1,7,4,97
145.1423073850612,10,1,7,4,98
145.1423073850612,10,1,7,4,99
145.1423073850612,10,1,7,4,100
145.1423073850612,10,1,7,4,101
145.1423073850612,10,1,7,4,102
145.58789697167776,10,1,7,4,103
145.58789697167776,10,1,7,4,104
145.67858198808855,10,1,7,4,105
145.67858198808855,10,1,7,4,106
145.68718667521463,10,1,7,4,107
145.67858198808855,10,1,7,5,109
144.847380682624,10,1,7,5,110
144.82881155431795,10,1,7,5,111
144.847380682624,10,1,7,5,112
143.33370089194574,10,1,7,5,113
143.74773363365455,10,1,7,5,114
143.74773363365455,10,1,7,5,115
144.30292712932723,10,1,7,5,116
144.30292712932723,10,1,7,5,117
144.30292712932723,10,1,7,5,118
143.87346166873365,10,1,7,5,119
143.87346166873365,10,1,7,5,120
143.87346166873365,10,1,7,5,121
144.2894160425431,10,1,7,5,122
144.2894160425431,10,1,7,5,123
144.2894160425431,10,1,7,5,124
144.28089483163495,10,1,7,5,125
144.28089483163495,10,1,7,5,126
143.8550188271966,10,1,7,5,127
143.8550188271966,10,1,7,5,128
143.7597446498172,10,1,7,5,129
143.75125438978662,10,1,7,5,130
143.75125438978662,10,1,7,5,131
143.7547740581111,10,1,7,5,132
144.2894160425431,10,1,7,5,133
144.29793808756494,10,1,7,5,134
144.29793808756494,10,1,7,5,135
144.70380966802725,10,1,7,5,136
144.28442772631385,10,1,7,5,137
144.28442772631385,10,1,7,5,138
144.27943925182151,10,1,7,5,139
144.16227490604916,10,1,7,5,140
143.741314809876,10,1,7,5,141
143.741314809876,10,1,7,5,142
144.27943925182151,10,1,7,5,143
144.28442772631385,10,1,7,5,144
144.27943925182151,10,1,7,5,145
144.28442772631385,10,1,7,5,146
144.27091980826623,10,1,7,5,147
144.26593205925838,10,1,7,5,148
144.25741433278452,10,1,7,5,149
144.25741433278452,10,1,7,5,150
144.26593205925838,10,1,7,5,151
144.29294888745187,10,1,7,5,152
144.26593205925838,10,1,7,5,153
143.85854037662986,10,1,7,5,154
143.741314809876,10,1,7,5,155
143.741314809876,10,1,7,5,156
143.741314809876,10,1,7,5,157
144.27445061918675,10,1,7,5,158
144.27445061918675,10,1,7,5,159
144.1572912434705,10,1,7,5,160
143.88050773568145,10,1,7,5,161
143.88050773568145,10,1,7,5,162
144.27943925182151,10,1,7,5,163
144.27943925182151,10,1,7,5,164
144.27943925182151,10,1,7,5,165
144.27445061918675,10,1,7,5,166
143.3054183165881,10,1,7,5,167
143.3054183165881,10,1,7,5,168
143.30046361870538,10,1,7,5,169
143.313880160466,10,1,7,5,170
142.35340623048216,10,1,7,5,171
143.313880160466,10,1,7,5,172
143.85854037662986,10,1,7,5,173
143.85854037662986,10,1,7,5,174
143.741314809876,10,1,7,5,175
143.741314809876,10,1,7,5,176
143.7363447835317,10,1,7,5,177
144.27445061918675,10,1,7,5,178
144.27445061918675,10,1,7,5,179
144.27445061918675,10,1,7,5,180
144.27445061918675,10,1,7,5,181
144.27445061918675,10,1,7,5,182
144.29294888745187,10,1,7,5,183
144.29294888745187,10,1,7,5,184
143.76326426845324,10,1,7,5,185
143.7363447835317,10,1,7,5,186
143.7363447835317,10,1,7,5,187
143.741314809876,10,1,7,5,188
143.74628467866776,10,1,7,5,189
144.25242730912495,10,1,7,5,190
144.2694618285305,10,1,7,5,191
144.2694618285305,10,1,7,5,192
144.2694618285305,10,1,7,5,193
144.69234315260886,10,1,7,5,194
144.69234315260886,10,1,7,5,195
144.2644728799734,10,1,7,5,196
144.2509678643895,10,1,7,5,197
144.24744012749832,10,1,7,5,198
144.24744012749832,10,1,7,5,199
144.25242730912495,10,1,7,5,200
144.25242730912495,10,1,7,5,201
143.74483240189952,10,1,7,5,202
143.73137459975527,10,1,7,5,203
143.74483240189952,10,1,7,5,204
144.80023322782108,10,1,7,5,205
144.80023322782108,10,1,7,5,206
144.24744012749832,10,1,7,5,207
143.71791923129464,10,1,7,6,209
134.19677783927693,10,1,7,6,210
134.18421504916185,10,1,7,6,211
133.80721094331884,10,1,7,6,212
133.6356519446275,10,1,7,6,213
133.6356519446275,10,1,7,6,214
134.17629366138095,10,1,7,6,215
134.18421504916185,10,1,7,6,216
134.19677783927693,10,1,7,6,217
134.19677783927693,10,1,7,6,218
134.19677783927693,10,1,7,6,219
134.19677783927693,10,1,7,6,220
134.19213721185181,10,1,7,6,221
133.63103072136587,10,1,7,6,222
133.63103072136587,10,1,7,6,223
133.63103072136587,10,1,7,6,224
134.19213721185181,10,1,7,6,225
134.19213721185181,10,1,7,6,226
134.17957509681338,10,1,7,6,227
133.63103072136587,10,1,7,6,228
134.17957509681338,10,1,7,6,229
134.18421504916185,10,1,7,6,230
134.19213721185181,10,1,7,6,231
134.19213721185181,10,1,7,6,232
134.19213721185181,10,1,7,6,233
134.19213721185181,10,1,7,6,234
134.19213721185181,10,1,7,6,235
134.20006014953128,10,1,7,6,236
134.20006014953128,10,1,7,6,237
134.18749643766253,10,1,7,6,238
133.81048372518183,10,1,7,6,239
133.81048372518183,10,1,7,6,240
134.17957509681338,10,1,7,6,241
134.17957509681338,10,1,7,6,242
134.17957509681338,10,1,7,6,243
133.80258378741553,10,1,7,6,244
133.80258378741553,10,1,7,6,245
133.80258378741553,10,1,7,6,246
134.18749643766253,10,1,7,6,247
134.18749643766253,10,1,7,6,248
134.18749643766253,10,1,7,6,249
134.17957509681338,10,1,7,6,250
134.17957509681338,10,1,7,6,251
134.17493499778223,10,1,7,6,252
134.18749643766253,10,1,7,6,253
134.17957509681338,10,1,7,6,254
134.18749643766253,10,1,7,6,255
134.17957509681338,10,1,7,6,0
134.17957509681338,10,1,7,6,1
134.17957509681338,10,1,7,6,2
134.17493499778223,10,1,7,6,3
134.17493499778223,10,1,7,6,4
133.63429834234688,10,1,7,6,5
133.63429834234688,10,1,7,6,6
134.19541855332372,10,1,7,6,7
134.19541855332372,10,1,7,6,8
133.79332903670658,10,1,7,6,9
133.6139004360558,10,1,7,6,10
133.79332903670658,10,1,7,6,11
133.60927959302106,10,1,7,6,12
133.6139004360558,10,1,7,6,13
133.6139004360558,10,1,7,6,14
134.1782144494406,10,1,7,6,15
134.1782144494406,10,1,7,6,16
134.17029475218055,10,1,7,6,17
134.16565436012056,10,1,7,6,18
134.16565436012056,10,1,7,6,19
134.18285551682138,10,1,7,6,20
134.18285551682138,10,1,7,6,21
134.18749643766253,10,1,7,6,22
134.18285551682138,10,1,7,6,23
134.1782144494406,10,1,7,6,24
133.79332903670658,10,1,7,6,25
133.8058556033084,10,1,7,6,26
133.8058556033084,10,1,7,6,27
134.19541855332372,10,1,7,6,28
134.19541855332372,10,1,7,6,29
134.19077681049518,10,1,7,6,30
134.1782144494406,10,1,7,6,31
133.7965989210875,10,1,7,6,32
133.6046586041404,10,1,7,6,33
133.6046586041404,10,1,7,6,34
134.15773625880828,10,1,7,6,35
134.16565436012056,10,1,7,6,36
134.16565436012056,10,1,7,6,37
134.16565436012056,10,1,7,6,38
134.16101382171448,10,1,7,6,39
134.16101382171448,10,1,7,6,40
134.16101382171448,10,1,7,6,41
134.16101382171448,10,1,7,6,42
134.15773625880828,10,1,7,6,43
134.15309654194212,10,1,7,6,44
134.14054099431257,10,1,7,6,45
134.14054099431257,10,1,7,6,46
134.14845667881107,10,1,7,6,47
134.14845667881107,10,1,7,6,48
134.13590180632954,10,1,7,6,49
134.13590180632954,10,1,7,6,50
134.1279877166394,10,1,7,6,51
134.15309654194212,10,1,7,7,53
304.683117393775,10,1,7,7,54
304.683117393775,10,1,7,7,55
304.683117393775,10,1,7,7,56
304.7010986513174,10,1,7,7,57
305.175371410966,10,1,7,7,58
305.2430525910518,10,1,7,7,59
305.27162551588987,10,1,7,7,60
305.2430525910518,10,1,7,7,61
305.21448483204546,10,1,7,7,62
305.20393247068654,10,1,7,7,63
304.7010986513174,10,1,7,7,64
304.7010986513174,10,1,7,7,65
305.2219444647861,10,1,7,7,66
305.2219444647861,10,1,7,7,67
305.26107008406166,10,1,7,7,68
305.26107008406166,10,1,7,7,69
305.2324986946025,10,1,7,7,70
305.2324986946025,10,1,7,7,71
305.2324986946025,10,1,7,7,72
305.2324986946025,10,1,7,7,73
305.2324986946025,10,1,7,7,74
305.2399582200041,10,1,7,7,75
305.2399582200041,10,1,7,7,76
305.2324986946025,10,1,7,7,77
305.2324986946025,10,1,7,7,78
305.2219444647861,10,1,7,7,79
305.2219444647861,10,1,7,7,80
305.2324986946025,10,1,7,7,81
305.2324986946025,10,1,7,7,82
305.2324986946025,10,1,7,7,83
304.7010986513174,10,1,7,7,84
304.7010986513174,10,1,7,7,85
305.19337977614543,10,1,7,7,86
305.19337977614543,10,1,7,7,87
304.6905620992169,10,1,7,7,88
304.6905620992169,10,1,7,7,89
305.13474059832697,10,1,7,7,90
305.13474059832697,10,1,7,7,91
305.13474059832697,10,1,7,7,92
305.2113899018577,10,1,7,7,93
305.2113899018577,10,1,7,7,94
305.10618461835776,10,1,7,7,95
305.10618461835776,10,1,7,7,96
304.66204768761276,10,1,7,7,97
305.1167349955901,10,1,7,7,98
305.1828267486771,10,1,7,7,99
305.2008350060724,10,1,7,7,100
305.2008350060724,10,1,7,7,101
305.1828267486771,10,1,7,7,102
305.1648202514117,10,1,7,7,103
305.1648202514117,10,1,7,7,104
305.1648202514117,10,1,7,7,105
304.6905620992169,10,1,7,7,106
305.19337977614543,10,1,7,7,107
305.17227338853667,10,1,7,7,108
305.17227338853667,10,1,7,7,109
305.15426875911487,10,1,7,7,110
305.15426875911487,10,1,7,7,111
305.1828267486771,10,1,7,7,112
305.1828267486771,10,1,7,7,113
305.1828267486771,10,1,7,7,114
304.66204768761276,10,1,7,7,115
304.66204768761276,10,1,7,7,116
304.66204768761276,10,1,7,7,117
304.6905620992169,10,1,7,7,118
304.63353843081563,10,1,7,7,119
304.6694879984037,10,1,7,7,120
304.6694879984037,10,1,7,7,121
305.09563390853685,10,1,7,7,122
305.17227338853667,10,1,7,7,123
305.17227338853667,10,1,7,7,124
305.1617196959789,10,1,7,7,125
305.1617196959789,10,1,7,7,126
305.1617196959789,10,1,7,7,127
304.6694879984037,10,1,7,7,128
304.6694879984037,10,1,7,7,129
305.0850828663821,10,1,7,7,130
305.1437169343304,10,1,7,7,131
305.0850828663821,10,1,7,7,132
305.1617196959789,10,1,7,7,133
305.1617196959789,10,1,7,7,134
305.1617196959789,10,1,7,7,135
305.1828267486771,10,1,7,7,136
305.1828267486771,10,1,7,7,137
305.1828267486771,10,1,7,7,138
304.6800252148275,10,1,7,7,139
305.19027977768513,10,1,7,7,140
305.17227338853667,10,1,7,7,141
305.17227338853667,10,1,7,7,142
305.17227338853667,10,1,7,7,143
304.6694879984037,10,1,7,7,144
304.65895045020034,10,1,7,7,145
304.65895045020034,10,1,7,7,146
305.0850828663821,10,1,7,7,147
305.1511656712589,10,1,7,7,148
305.1617196959789,10,1,7,7,149
305.1617196959789,10,1,7,7,150
305.13316477731325,10,1,7,7,151
304.6124704618918,10,1,7,8,153
146.0992298639443,10,1,7,8,154
144.6016935285991,10,1,7,8,155
146.0992298639443,10,1,7,8,156
145.15771273595,10,1,7,8,157
145.15771273595,10,1,7,8,158
144.62023021464907,10,1,7,8,159
144.62023021464907,10,1,7,8,160
145.03987552886892,10,1,7,8,161
145.15771273595,10,1,7,8,162
145.04489375602887,10,1,7,8,163
146.64260602268968,10,1,7,8,164
145.15771273595,10,1,7,8,165
145.58939716773693,10,1,7,8,166
145.58939716773693,10,1,7,8,167
145.58939716773693,10,1,7,8,168
145.99221797464202,10,1,7,8,169
145.15269060550705,10,1,7,8,170
145.57073473806915,10,1,7,8,171
145.15269060550705,10,1,7,8,172
145.14766831750126,10,1,7,8,173
145.02630263876463,10,1,7,8,174
145.02630263876463,10,1,7,8,175
145.12050534072162,10,1,7,8,176
145.12050534072162,10,1,7,8,177
145.13408560129972,10,1,7,8,178
145.01273220251292,10,1,7,8,179
145.129063887123,10,1,7,8,180
145.02128498477916,10,1,7,8,181
145.129063887123,10,1,7,8,182
145.54349258851678,10,1,7,8,183
145.54349258851678,10,1,7,8,184
145.54349258851678,10,1,7,8,185
145.53845697065768,10,1,7,8,186
145.53845697065768,10,1,7,8,187
145.12050534072162,10,1,7,8,188
145.12050534072162,10,1,7,8,189
146.09417508857138,10,1,7,8,190
146.09417508857138,10,1,7,8,191
146.08555903148687,10,1,7,8,192
145.565697653544,10,1,7,8,193
145.13408560129972,10,1,7,8,194
145.02128498477916,10,1,7,8,195
145.02128498477916,10,1,7,8,196
145.565697653544,10,1,7,8,197
145.565697653544,10,1,7,8,198
145.565697653544,10,1,7,8,199
145.57073473806915,10,1,7,8,200
145.57073473806915,10,1,7,8,201
145.55207608077941,10,1,7,8,202
145.55207608077941,10,1,7,8,203
145.55207608077941,10,1,7,8,204
145.1376232692863,10,1,7,8,205
145.1376232692863,10,1,7,8,206
145.55711243190248,10,1,7,8,207
145.55711243190248,10,1,7,8,208
145.5793216895943,10,1,7,8,209
145.5793216895943,10,1,7,8,210
146.1114097272777,10,1,7,8,211
146.1114097272777,10,1,7,8,212
146.1114097272777,10,1,7,8,213
146.11646629184966,10,1,7,8,214
146.11646629184966,10,1,7,8,215
145.5793216895943,10,1,7,8,216
145.565697653544,10,1,7,8,217
145.02983860234914,10,1,7,8,218
145.565697653544,10,1,7,8,219
145.16479314504005,10,1,7,8,220
145.16479314504005,10,1,7,8,221
145.16479314504005,10,1,7,8,222
144.62728440676406,10,1,7,8,223
145.58790947987512,10,1,7,8,224
144.62728440676406,10,1,7,8,225
145.17838176850364,10,1,7,8,226
145.17838176850364,10,1,7,8,227
145.5793216895943,10,1,7,8,228
145.58790947987512,10,1,7,8,229
145.58790947987512,10,1,7,8,230
145.15474454124393,10,1,7,8,231
145.15474454124393,10,1,7,8,232
145.60153771052185,10,1,7,8,233
145.60153771052185,10,1,7,8,234
144.62728440676406,10,1,7,8,235
144.62728440676406,10,1,7,8,236
145.57428371366223,10,1,7,8,237
145.57428371366223,10,1,7,8,238
144.60874365590647,10,1,7,8,239
144.60874365590647,10,1,7,8,240
144.0640479976962,10,1,7,8,241
145.56066041123995,10,1,7,8,242
145.56924557998497,10,1,7,8,243
146.10635300437858,10,1,7,8,244
145.56924557998497,10,1,7,8,245
146.1012961232743,10,1,7,8,246
145.54200290558117,10,1,7,8,247
146.0977361589023,10,1,7,8,248
145.55562301127844,10,1,7,8,249
145.55562301127844,10,1,7,8,250
145.55562301127844,10,1,7,8,251
145.55058545378103,10,1,7,8,252
145.55058545378103,10,1,7,8,253
144.58168073541344,10,1,7,8,254
144.58168073541344,10,1,7,8,255
144.58168073541344,10,1,7,8,0
145.00121279773026,10,1,7,8,1
145.11901998719213,10,1,7,8,2
145.00121279773026,10,1,7,8,3
145.01980104703702,10,1,7,8,4
145.01980104703702,10,1,7,8,5
145.01980104703702,10,1,7,8,6
145.53696608174886,10,1,7,8,7
145.51477008064307,10,1,7,8,8
145.53696608174886,10,1,7,8,9
145.51477008064307,10,1,7,8,10
145.10897545929828,10,1,7,8,11
144.58168073541344,10,1,7,8,12
145.00121279773026,10,1,7,8,13
144.5952109722811,10,1,7,8,14
145.00121279773026,10,1,7,8,15
145.53696608174886,10,1,7,8,16
145.66617570994526,10,1,7,8,17
145.66617570994526,10,1,7,8,18
145.54554773886915,10,1,7,8,19
145.01980104703702,10,1,7,8,20
145.54554773886915,10,1,7,8,21
145.01980104703702,10,1,7,8,22
145.1275775922744,10,1,7,8,23
144.59020665383528,10,1,7,8,24
145.1275775922744,10,1,7,8,25
144.59020665383528,10,1,7,8,26
145.1275775922744,10,1,7,8,27
145.1225545182725,10,1,7,8,28
145.54554773886915,10,1,7,8,29
145.53192910058968,10,1,7,8,30
145.53192910058968,10,1,7,8,31
144.0540766280223,10,1,7,8,32
144.0540766280223,10,1,7,8,33
145.1275775922744,10,1,7,8,34
145.13111207013847,10,1,7,8,35
145.13111207013847,10,1,7,8,36
145.13613603282187,10,1,7,8,37
145.13613603282187,10,1,7,8,38
145.55916883988112,10,1,7,8,39
145.57783158710114,10,1,7,8,40
145.55916883988112,10,1,7,8,41
145.13613603282187,10,1,7,8,42
145.13613603282187,10,1,7,8,43
144.59873340462875,10,1,7,8,44
145.54554773886915,10,1,7,8,45
145.54554773886915,10,1,7,8,46
145.54554773886915,10,1,7,8,47
145.54050986666422,10,1,7,8,48
145.54050986666422,10,1,7,8,49
145.0047435372012,10,1,7,8,50
145.54554773886915,10,1,7,8,51
145.54554773886915,10,1,7,8,52
145.54554773886915,10,1,7,8,53
145.0097628639008,10,1,7,8,54
145.0097628639008,10,1,7,8,55
145.01831376469568,10,1,7,8,56
145.01831376469568,10,1,7,8,57
145.01831376469568,10,1,7,8,58
145.0047435372012,10,1,7,8,59
145.11753128743462,10,1,7,8,60
145.11753128743462,10,1,7,8,61
145.54050986666422,10,1,7,8,62
145.54050986666422,10,1,7,8,63
145.54050986666422,10,1,7,8,64
145.52689196222505,10,1,7,8,65
146.07751126478212,10,1,7,8,66
145.52689196222505,10,1,7,8,67
146.0724546465686,10,1,7,8,68
145.54050986666422,10,1,7,8,69
146.0724546465686,10,1,7,8,70
145.54050986666422,10,1,7,8,71
145.6560921212138,10,1,7,8,72
145.65105009084272,10,1,7,8,73
145.65105009084272,10,1,7,8,74
144.58520217901372,10,1,7,8,75
144.58520217901372,10,1,7,8,76
144.58520217901372,10,1,7,8,77
145.11250789988196,10,1,7,8,78
145.11250789988196,10,1,7,8,79
146.06889883822086,10,1,7,8,80
146.06889883822086,10,1,7,8,81
146.08106701924393,10,1,7,8,82
145.5354718372877,10,1,7,8,83
145.5354718372877,10,1,7,8,84
145.5168172143647,10,1,7,8,85
145.5168172143647,10,1,7,8,86
145.5168172143647,10,1,7,8,87
146.07751126478212,10,1,7,8,88
146.07751126478212,10,1,7,8,89
146.06739787072536,10,1,7,8,90
146.05878723272892,10,1,7,8,91
145.64246340199804,10,1,7,8,92
145.64246340199804,10,1,7,8,93
145.0989303044101,10,1,7,8,94
145.0989303044101,10,1,7,8,95
145.52185466677625,10,1,8,2,97
148.30270183028722,10,1,8,2,98
148.30783338392027,10,1,8,2,99
148.8305624876709,10,1,8,2,100
148.8305624876709,10,1,8,2,101
148.31296477844288,10,1,8,2,102
148.31296477844288,10,1,8,2,103
148.75934931103492,10,1,8,2,104
148.75934931103492,10,1,8,2,105
148.34222649721266,10,1,8,2,106
148.34222649721266,10,1,8,2,107
148.34222649721266,10,1,8,2,108
148.34735800108754,10,1,8,2,109
148.34735800108754,10,1,8,2,110
148.34735800108754,10,1,8,2,111
147.92168662956308,10,1,8,2,112
147.83962013612683,10,1,8,2,113
147.83962013612683,10,1,8,2,114
148.34888007465221,10,1,8,2,115
148.34888007465221,10,1,8,2,116
147.92320392903216,10,1,8,2,117
147.92320392903216,10,1,8,2,118
147.91448846519793,10,1,8,2,119
147.92831959192392,10,1,8,2,120
147.92831959192392,10,1,8,2,121
147.92831959192392,10,1,8,2,122
147.94215321783705,10,1,8,2,123
147.91448846519793,10,1,8,2,124
147.94215321783705,10,1,8,2,125
147.92831959192392,10,1,8,2,126
148.37301312075405,10,1,8,2,127
147.92831959192392,10,1,8,2,128
148.3868885994313,10,1,8,2,129
147.94215321783705,10,1,8,2,130
148.36788241719339,10,1,8,2,131
147.94215321783705,10,1,8,2,132
148.36788241719339,10,1,8,2,133
148.36788241719339,10,1,8,2,134
148.36788241719339,10,1,8,2,135
148.37301312075405,10,1,8,2,136
147.94215321783705,10,1,8,2,137
148.37301312075405,10,1,8,2,138
148.3868885994313,10,1,8,2,139
148.39563438837052,10,1,8,2,140
148.39563438837052,10,1,8,2,141
148.3868885994313,10,1,8,2,142
147.86007536960102,10,1,8,2,143
147.86007536960102,10,1,8,2,144
147.85496180067727,10,1,8,2,145
147.87390381911356,10,1,8,2,146
147.87390381911356,10,1,8,2,147
148.36788241719339,10,1,8,2,148
148.36788241719339,10,1,8,2,149
147.86518877868969,10,1,8,2,150
147.86518877868969,10,1,8,2,151
147.85136208353236,10,1,8,2,152
147.85136208353236,10,1,8,2,153
147.85136208353236,10,1,8,2,154
147.92831959192392,10,1,8,2,155
147.92831959192392,10,1,8,2,156
147.85496180067727,10,1,8,2,157
147.85496180067727,10,1,8,2,158
147.8411365938028,10,1,8,2,159
148.3766255384663,10,1,8,2,160
147.9093735467649,10,1,8,2,161
147.9093735467649,10,1,8,2,162
147.86007536960102,10,1,8,2,163
147.86007536960102,10,1,8,2,164
147.9508721913592,10,1,8,2,165
148.36275155332288,10,1,8,2,166
148.36275155332288,10,1,8,2,167
147.93703681034626,10,1,8,2,168
147.91808810642863,10,1,8,2,169
147.93703681034626,10,1,8,2,170
147.92831959192392,10,1,8,2,171
147.92831959192392,10,1,8,2,172
147.92831959192392,10,1,8,2,173
147.8462494185407,10,1,8,2,174
147.93192024305492,10,1,8,2,175
148.36275155332288,10,1,8,2,176
148.36275155332288,10,1,8,2,177
147.9457548792397,10,1,8,2,178
147.9457548792397,10,1,8,2,179
147.94215321783705,10,1,8,2,180
148.3766255384663,10,1,8,2,181
147.94215321783705,10,1,8,2,182
148.38536951273744,10,1,8,2,183
148.36275155332288,10,1,8,2,184
148.36275155332288,10,1,8,2,185
147.93192024305492,10,1,8,2,186
147.83602360944184,10,1,8,2,187
147.83602360944184,10,1,8,2,188
147.91808810642863,10,1,8,2,189
148.35762052926614,10,1,8,2,190
148.35762052926614,10,1,8,2,191
147.91808810642863,10,1,8,2,192
147.84984807204157,10,1,8,2,193
147.84984807204157,10,1,8,2,194
147.84984807204157,10,1,8,2,195
147.84984807204157,10,1,8,3,197
124.21660845544733,10,1,8,3,198
123.27681213792498,10,1,8,3,199
122.87363654343824,10,1,8,3,200
122.86214744138611,10,1,8,3,201
122.86214744138611,10,1,8,3,202
122.86214744138611,10,1,8,3,203
122.86938654216182,10,1,8,3,204
122.85789805872815,10,1,8,3,205
122.85789805872815,10,1,8,3,206
122.85066041494919,10,1,8,3,207
122.85066041494919,10,1,8,3,208
122.85066041494919,10,1,8,3,209
122.85066041494919,10,1,8,3,210
122.8464116507931,10,1,8,3,211
122.8464116507931,10,1,8,3,212
122.85364854361666,10,1,8,3,213
122.85789805872815,10,1,8,3,214
122.85789805872815,10,1,8,3,215
122.86938654216182,10,1,8,3,216
122.86938654216182,10,1,8,3,217
122.87363654343824,10,1,8,3,218
122.87363654343824,10,1,8,3,219
122.87237546391205,10,1,8,3,220
122.8464116507931,10,1,8,3,221
122.8464116507931,10,1,8,3,222
122.8464116507931,10,1,8,3,223
122.8464116507931,10,1,8,3,224
122.8464116507931,10,1,8,3,225
122.85789805872815,10,1,8,3,226
122.86088614212952,10,1,8,3,227
122.85789805872815,10,1,8,3,228
122.86088614212952,10,1,8,3,229
122.86088614212952,10,1,8,3,230
122.86513640835818,10,1,8,3,231
122.86513640835818,10,1,8,3,232
122.85364854361666,10,1,8,3,233
122.84939889615383,10,1,8,3,234
122.8464116507931,10,1,8,3,235
122.84939889615383,10,1,8,3,236
122.85364854361666,10,1,8,3,237
122.85364854361666,10,1,8,3,238
122.85789805872815,10,1,8,3,239
122.84939889615383,10,1,8,3,240
122.84939889615383,10,1,8,3,241
122.84939889615383,10,1,8,3,242
122.85663574357812,10,1,8,3,243
122.85663574357812,10,1,8,3,244
122.84939889615383,10,1,8,3,245
122.84939889615383,10,1,8,3,246
122.84939889615383,10,1,8,3,247
122.85364854361666,10,1,8,3,248
122.85364854361666,10,1,8,3,249
122.84939889615383,10,1,8,3,250
122.84216275425713,10,1,8,3,251
122.84216275425713,10,1,8,3,252
122.84514911644189,10,1,8,3,253
122.84514911644189,10,1,8,3,254
122.83366456445431,10,1,8,3,255
122.83366456445431,10,1,8,3,0
122.84216275425713,10,1,8,3,1
122.84939889615383,10,1,8,3,2
122.84939889615383,10,1,8,3,3
122.85364854361666,10,1,8,3,4
122.85364854361666,10,1,8,3,5
122.85364854361666,10,1,8,3,6
122.86088614212952,10,1,8,3,7
122.84939889615383,10,1,8,3,8
122.86088614212952,10,1,8,3,9
122.85663574357812,10,1,8,3,10
122.85663574357812,10,1,8,3,11
122.85663574357812,10,1,8,3,12
122.85663574357812,10,1,8,3,13
122.8681244464045,10,1,8,3,14
122.8681244464045,10,1,8,3,15
122.86088614212952,10,1,8,3,16
122.85663574357812,10,1,8,3,17
122.85663574357812,10,1,8,3,18
122.85663574357812,10,1,8,3,19
122.85663574357812,10,1,8,3,20
122.85663574357812,10,1,8,3,21
122.86387329660282,10,1,8,3,22
122.86387329660282,10,1,8,3,23
122.86387329660282,10,1,8,3,24
122.86088614212952,10,1,8,3,25
122.84514911644189,10,1,8,3,26
122.85663574357812,10,1,8,3,27
122.85663574357812,10,1,8,3,28
122.85663574357812,10,1,8,3,29
122.85663574357812,10,1,8,3,30
122.85663574357812,10,1,8,3,31
122.83366456445431,10,1,8,3,32
122.83366456445431,10,1,8,3,33
123.24096863697417,10,1,8,3,34
123.24096863697417,10,1,8,3,35
123.24096863697417,10,1,8,3,36
123.23371043499927,10,1,8,3,37
123.2524920529404,10,1,8,3,38
123.22944730279787,10,1,8,3,39
124.19512597311811,10,1,8,4,41
140.38082225862334,10,1,8,4,42
140.38082225862334,10,1,8,4,43
140.38082225862334,10,1,8,4,44
140.3676994748823,10,1,8,4,45
140.38082225862334,10,1,8,4,46
139.96136563423337,10,1,8,4,47
140.49540298876482,10,1,8,4,48
140.38909038881076,10,1,8,4,49
140.38909038881076,10,1,8,4,50
140.38909038881076,10,1,8,4,51
140.81882936585615,10,1,8,4,52
140.81882936585615,10,1,8,4,53
140.91663124730178,10,1,8,4,54
140.90833262212598,10,1,8,4,55
140.90833262212598,10,1,8,4,56
140.90833262212598,10,1,8,4,57
140.90833262212598,10,1,8,4,58
140.37937588715454,10,1,8,4,59
140.37937588715454,10,1,8,4,60
140.37937588715454,10,1,8,4,61
140.3842332133781,10,1,8,4,62
140.89028660465814,10,1,8,4,63
140.89028660465814,10,1,8,4,64
140.79250249955504,10,1,8,4,65
140.3711094731363,10,1,8,4,66
140.3711094731363,10,1,8,4,67
140.3842332133781,10,1,8,4,68
140.47740845666266,10,1,8,4,69
140.47740845666266,10,1,8,4,70
140.80079340957784,10,1,8,4,71
140.47740845666266,10,1,8,4,72
139.95168072984018,10,1,8,4,73
139.84007037394466,10,1,8,4,74
139.82699864396832,10,1,8,4,75
139.82699864396832,10,1,8,4,76
139.95168072984018,10,1,8,4,77
139.95168072984018,10,1,8,4,78
139.93035810864475,10,1,8,4,79
139.93035810864475,10,1,8,4,80
140.34972415814892,10,1,8,4,81
140.34972415814892,10,1,8,4,82
140.3711094731363,10,1,8,4,83
140.3482761298231,10,1,8,4,84
140.3711094731363,10,1,8,4,85
140.46427715069146,10,1,8,4,86
140.46427715069146,10,1,8,4,87
140.35313219196422,10,1,8,4,88
140.35313219196422,10,1,8,4,89
140.3711094731363,10,1,8,4,90
140.3842332133781,10,1,8,4,91
140.3842332133781,10,1,8,4,92
140.3842332133781,10,1,8,4,93
140.37937588715454,10,1,8,4,94
140.37937588715454,10,1,8,4,95
140.37937588715454,10,1,8,4,96
140.37937588715454,10,1,8,4,97
139.964766144619,10,1,8,4,98
140.37937588715454,10,1,8,4,99
140.37451841025666,10,1,8,4,100
140.37451841025666,10,1,8,4,101
140.37451841025666,10,1,8,4,102
140.37937588715454,10,1,8,4,103
140.91175549998576,10,1,8,4,104
140.92005407246964,10,1,8,4,105
140.92005407246964,10,1,8,4,106
140.91175549998576,10,1,8,4,107
140.48081997527254,10,1,8,4,108
140.81737765358096,10,1,8,4,109
140.48081997527254,10,1,8,4,110
139.41898120456742,10,1,8,4,111
139.41898120456742,10,1,8,4,112
140.37451841025666,10,1,8,4,113
140.37451841025666,10,1,8,4,114
140.36139608482108,10,1,8,4,115
140.36139608482108,10,1,8,4,116
140.39250129122468,10,1,8,4,117
140.4939546107173,10,1,8,4,118
140.39250129122468,10,1,8,4,119
140.36966078280113,10,1,8,4,120
140.36966078280113,10,1,8,4,121
140.37451841025666,10,1,8,4,122
140.37451841025666,10,1,8,4,123
139.92891358443555,10,1,8,4,124
139.92891358443555,10,1,8,4,125
140.36966078280113,10,1,8,4,126
140.46282711474777,10,1,8,4,127
140.46282711474777,10,1,8,4,128
139.8303937324287,10,1,8,4,129
139.8303937324287,10,1,8,4,130
139.92891358443555,10,1,8,4,131
139.92891358443555,10,1,8,4,132
139.93715224692704,10,1,8,4,133
140.37792628598731,10,1,8,4,134
140.37792628598731,10,1,8,4,135
139.84686139805484,10,1,8,4,136
139.84686139805484,10,1,8,4,137
140.36139608482108,10,1,8,4,138
140.36966078280113,10,1,8,4,139
140.36139608482108,10,1,8,5,141
136.75412399221986,10,1,8,5,142
136.75412399221986,10,1,8,5,143
137.17472614244733,10,1,8,5,144
137.59743264728573,10,1,8,5,145
137.59743264728573,10,1,8,5,146
137.59743264728573,10,1,8,5,147
136.34839249764113,10,1,8,5,148
136.34839249764113,10,1,8,5,149
136.76217659875368,10,1,8,5,150
137.06246488732418,10,1,8,5,151
137.59743264728573,10,1,8,5,152
137.59743264728573,10,1,8,5,153
137.59743264728573,10,1,8,5,154
137.5926708079881,10,1,8,5,155
138.0174476322903,10,1,8,5,156
137.5926708079881,10,1,8,5,157
137.5845701745402,10,1,8,5,158
137.5845701745402,10,1,8,5,159
136.64614917981416,10,1,8,5,160
136.7493913373352,10,1,8,5,161
136.7493913373352,10,1,8,5,162
136.7493913373352,10,1,8,5,163
137.15715666471894,10,1,8,5,164
136.1936841524897,10,1,8,5,165
136.19839763823114,10,1,8,5,166
136.19839763823114,10,1,8,5,167
136.20641610228708,10,1,8,5,168
136.60310545039718,10,1,8,5,169
136.63337476526073,10,1,8,5,170
136.63337476526073,10,1,8,5,171
137.99977015420794,10,1,8,5,172
135.78630806936755,10,1,8,5,173
135.23505781250168,10,1,8,5,174
135.23505781250168,10,1,8,5,175
137.58314668744094,10,1,8,5,176
138.1112332789869,10,1,8,5,177
138.52136343222855,10,1,8,5,178
138.1112332789869,10,1,8,5,179
138.1112332789869,10,1,8,5,180
137.05630271925835,10,1,8,5,181
137.05630271925835,10,1,8,5,182
137.1604840698179,10,1,8,5,183
137.5702862958553,10,1,8,5,184
137.58314668744094,10,1,8,5,185
137.58314668744094,10,1,8,5,186
137.9949940145727,10,1,8,5,187
137.9949940145727,10,1,8,5,188
137.57504773594738,10,1,8,5,189
137.57504773594738,10,1,8,5,190
138.5343118541712,10,1,8,5,191
138.5343118541712,10,1,8,5,192
138.5343118541712,10,1,8,5,193
136.2017017840285,10,1,8,5,194
136.2017017840285,10,1,8,5,195
137.99977015420794,10,1,8,5,196
137.99977015420794,10,1,8,5,197
137.99977015420794,10,1,8,5,198
138.52951721417327,10,1,8,5,199
138.52951721417327,10,1,8,5,200
137.99977015420794,10,1,8,5,201
137.99977015420794,10,1,8,5,202
137.1604840698179,10,1,8,5,203
138.1193637953665,10,1,8,5,204
137.04349070448822,10,1,8,5,205
137.5702862958553,10,1,8,5,206
137.04349070448822,10,1,8,5,207
137.5702862958553,10,1,8,5,208
137.99977015420794,10,1,8,5,209
137.99977015420794,10,1,8,5,210
137.99977015420794,10,1,8,5,211
138.1193637953665,10,1,8,5,212
138.1193637953665,10,1,8,5,213
137.56552470871858,10,1,8,5,214
137.56552470871858,10,1,8,5,215
137.56552470871858,10,1,8,5,216
137.56552470871858,10,1,8,5,217
137.56552470871858,10,1,8,5,218
136.1842567440757,10,1,8,5,219
136.1842567440757,10,1,8,5,220
137.03542407872646,10,1,8,5,221
137.14291622673517,10,1,8,5,222
137.14291622673517,10,1,8,5,223
137.14291622673517,10,1,8,5,224
137.15573641877327,10,1,8,5,225
138.0031171256675,10,1,8,5,226
137.15573641877327,10,1,8,5,227
137.5783844064201,10,1,8,5,228
137.5783844064201,10,1,8,5,229
138.12749510358103,10,1,8,5,230
138.12749510358103,10,1,8,5,231
137.27468461122558,10,1,8,5,232
137.27468461122558,10,1,8,5,233
138.65207120827912,10,1,8,5,234
138.65207120827912,10,1,8,5,235
137.15573641877327,10,1,8,5,236
137.15573641877327,10,1,8,5,237
138.109801964673,10,1,8,5,238
138.109801964673,10,1,8,5,239
138.0968928442048,10,1,8,6,241
126.36322114529334,10,1,8,6,242
125.99323638421357,10,1,8,6,243
125.99323638421357,10,1,8,6,244
126.37940818025412,10,1,8,6,245
126.37940818025412,10,1,8,6,246
126.37940818025412,10,1,8,6,247
126.37940818025412,10,1,8,6,248
126.38684782337262,10,1,8,6,249
126.38684782337262,10,1,8,6,250
126.37940818025412,10,1,8,6,251
126.37503341717664,10,1,8,6,252
126.37503341717664,10,1,8,6,253
126.37503341717664,10,1,8,6,254
126.37503341717664,10,1,8,6,255
126.37503341717664,10,1,8,6,0
126.37065851915861,10,1,8,6,1
126.37065851915861,10,1,8,6,2
126.37065851915861,10,1,8,6,3
126.37065851915861,10,1,8,6,4
126.37065851915861,10,1,8,6,5
126.37065851915861,10,1,8,6,6
126.37065851915861,10,1,8,6,7
126.36322114529334,10,1,8,6,8
126.37065851915861,10,1,8,6,9
126.36322114529334,10,1,8,6,10
126.36628348630492,10,1,8,6,11
126.36628348630492,10,1,8,6,12
126.36628348630492,10,1,8,6,13
126.36628348630492,10,1,8,6,14
126.35447248960094,10,1,8,6,15
126.35447248960094,10,1,8,6,16
126.35884688482737,10,1,8,6,17
126.35884688482737,10,1,8,6,18
126.35884688482737,10,1,8,6,19
126.36628348630492,10,1,8,6,20
126.37809661708044,10,1,8,6,21
126.37809661708044,10,1,8,6,22
126.38247228768199,10,1,8,6,23
126.37809661708044,10,1,8,6,24
126.38247228768199,10,1,8,6,25
126.37809661708044,10,1,8,6,26
126.37809661708044,10,1,8,6,27
126.37809661708044,10,1,8,6,28
126.35447248960094,10,1,8,6,29
126.35447248960094,10,1,8,6,30
126.35447248960094,10,1,8,6,31
126.35447248960094,10,1,8,6,32
126.35447248960094,10,1,8,6,33
126.35447248960094,10,1,8,6,34
126.35447248960094,10,1,8,6,35
126.35447248960094,10,1,8,6,36
125.97273609145466,10,1,8,6,37
125.97273609145466,10,1,8,6,38
126.36190831872051,10,1,8,6,39
126.36190831872051,10,1,8,6,40
126.35447248960094,10,1,8,6,41
126.35447248960094,10,1,8,6,42
126.36190831872051,10,1,8,6,43
126.36190831872051,10,1,8,6,44
126.36190831872051,10,1,8,6,45
126.35447248960094,10,1,8,6,46
126.350097959719,10,1,8,6,47
126.350097959719,10,1,8,6,48
126.350097959719,10,1,8,6,49
126.350097959719,10,1,8,6,50
125.96837454962353,10,1,8,6,51
126.350097959719,10,1,8,6,52
126.350097959719,10,1,8,6,53
126.35447248960094,10,1,8,6,54
126.350097959719,10,1,8,6,55
126.350097959719,10,1,8,6,56
126.350097959719,10,1,8,6,57
126.34572329528639,10,1,8,6,58
126.3382897341117,10,1,8,6,59
126.33391570733606,10,1,8,6,60
126.33391570733606,10,1,8,6,61
126.33391570733606,10,1,8,6,62
125.9522399318327,10,1,8,6,63
126.3382897341117,10,1,8,6,64
125.95965106344622,10,1,8,6,65
126.3382897341117,10,1,8,6,66
125.97142549639769,10,1,8,6,67
126.3382897341117,10,1,8,6,68
126.34572329528639,10,1,8,6,69
126.34572329528639,10,1,8,6,70
126.35753301651026,10,1,8,6,71
126.350097959719,10,1,8,6,72
126.350097959719,10,1,8,6,73
126.34572329528639,10,1,8,6,74
126.33391570733606,10,1,8,6,75
125.9478787575593,10,1,8,6,76
125.9478787575593,10,1,8,6,77
126.34134849640795,10,1,8,6,78
126.34572329528639,10,1,8,6,79
126.34572329528639,10,1,8,6,80
126.34134849640795,10,1,8,6,81
125.94046911670934,10,1,8,6,82
125.94046911670934,10,1,8,6,83
126.34572329528639,10,1,8,7,85
158.24121136845943,10,1,8,7,86
159.14539304660622,10,1,8,7,87
159.1949312693546,10,1,8,7,88
159.1949312693546,10,1,8,7,89
159.6287036510538,10,1,8,7,90
159.6287036510538,10,1,8,7,91
159.61214478228248,10,1,8,7,92
159.6066178237834,10,1,8,7,93
159.6066178237834,10,1,8,7,94
159.73506917586388,10,1,8,7,95
159.73506917586388,10,1,8,7,96
159.73506917586388,10,1,8,7,97
159.21917819104556,10,1,8,7,98
159.66793704146266,10,1,8,7,99
159.1398825388593,10,1,8,7,100
159.1398825388593,10,1,8,7,101
159.1398825388593,10,1,8,7,102
159.2042974188863,10,1,8,7,103
159.2042974188863,10,1,8,7,104
159.6325666702395,10,1,8,7,105
159.6325666702395,10,1,8,7,106
159.6325666702395,10,1,8,7,107
159.6380943098955,10,1,8,7,108
159.6231769867915,10,1,8,7,109
159.6380943098955,10,1,8,7,110
159.6325666702395,10,1,8,7,111
159.6325666702395,10,1,8,7,112
159.6325666702395,10,1,8,7,113
159.13437186189614,10,1,8,7,114
159.64748588225495,10,1,8,7,115
159.64748588225495,10,1,8,7,116
159.64748588225495,10,1,8,7,117
159.6419572669957,10,1,8,7,118
159.6419572669957,10,1,8,7,119
159.60109069549293,10,1,8,7,120
159.60109069549293,10,1,8,7,121
159.60109069549293,10,1,8,7,122
159.6325666702395,10,1,8,7,123
159.6325666702395,10,1,8,7,124
159.6325666702395,10,1,8,7,125
159.64748588225495,10,1,8,7,126
159.64748588225495,10,1,8,7,127
159.1437341600053,10,1,8,7,128
159.1437341600053,10,1,8,7,129
159.6325666702395,10,1,8,7,130
159.6419572669957,10,1,8,7,131
159.6419572669957,10,1,8,7,132
159.71460941799828,10,1,8,7,133
159.6325666702395,10,1,8,7,134
159.6325666702395,10,1,8,7,135
159.6325666702395,10,1,8,7,136
159.19327143470565,10,1,8,7,137
159.19327143470565,10,1,8,7,138
159.19327143470565,10,1,8,7,139
159.16736990569677,10,1,8,7,140
159.16736990569677,10,1,8,7,141
159.16736990569677,10,1,8,7,142
159.10848034688544,10,1,8,7,143
159.62151088245588,10,1,8,7,144
159.61212314968222,10,1,8,7,145
159.62151088245588,10,1,8,7,146
159.62151088245588,10,1,8,7,147
159.62151088245588,10,1,8,7,148
159.62151088245588,10,1,8,7,149
159.63089952811842,10,1,8,7,150
159.62151088245588,10,1,8,7,151
159.62151088245588,10,1,8,7,152
159.10848034688544,10,1,8,7,153
159.10848034688544,10,1,8,7,154
159.62151088245588,10,1,8,7,155
159.62151088245588,10,1,8,7,156
159.62151088245588,10,1,8,7,157
159.62151088245588,10,1,8,7,158
159.10848034688544,10,1,8,7,159
159.10848034688544,10,1,8,7,160
159.09912278669657,10,1,8,7,161
159.6159827345929,10,1,8,7,162
159.10848034688544,10,1,8,7,163
159.62151088245588,10,1,8,7,164
159.62151088245588,10,1,8,7,165
159.6419572669957,10,1,8,7,166
159.6419572669957,10,1,8,7,167
159.6419572669957,10,1,8,7,168
159.660741200807,10,1,8,7,169
159.660741200807,10,1,8,7,170
159.645819016622,10,1,8,7,171
159.57512136517497,10,1,8,7,172
159.20263654931185,10,1,8,7,173
159.20263654931185,10,1,8,7,174
159.1437341600053,10,1,8,7,175
159.5900359300671,10,1,8,7,176
159.6364284822394,10,1,8,7,177
159.6364284822394,10,1,8,7,178
159.6364284822394,10,1,8,7,179
159.1327103536424,10,1,8,7,180
159.1327103536424,10,1,8,7,181
159.1327103536424,10,1,8,7,182
159.64028908676343,10,1,8,7,183
159.64028908676343,10,1,8,8,185
292.03281776689124,10,1,8,8,186
292.4307730209846,10,1,8,8,187
292.03281776689124,10,1,8,8,188
292.00552701752764,10,1,8,8,189
292.00552701752764,10,1,8,8,190
292.4581016609042,10,1,8,8,191
292.4581016609042,10,1,8,8,192
292.4307730209846,10,1,8,8,193
292.03281776689124,10,1,8,8,194
292.00552701752764,10,1,8,8,195
292.00552701752764,10,1,8,8,196
291.98835107704775,10,1,8,8,197
292.4307730209846,10,1,8,8,198
291.98835107704775,10,1,8,8,199
291.98835107704775,10,1,8,8,200
291.9681310079355,10,1,8,8,201
291.9337912724425,10,1,8,8,202
291.9337912724425,10,1,8,8,203
291.9681310079355,10,1,8,8,204
291.9782411974643,10,1,8,8,205
292.44797498651957,10,1,8,8,206
292.44797498651957,10,1,8,8,207
291.9782411974643,10,1,8,8,208
291.9782411974643,10,1,8,8,209
291.99541535378853,10,1,8,8,210
291.99541535378853,10,1,8,8,211
291.9681310079355,10,1,8,8,212
291.9188184383813,10,1,8,8,213
291.9681310079355,10,1,8,8,214
291.99541535378853,10,1,8,8,215
292.41052231434077,10,1,8,8,216
292.44797498651957,10,1,8,8,217
292.44797498651957,10,1,8,8,218
291.9681310079355,10,1,8,8,219
291.9681310079355,10,1,8,8,220
291.9681310079355,10,1,8,8,221
292.00552701752764,10,1,8,8,222
292.00552701752764,10,1,8,8,223
292.46517862524166,10,1,8,8,224
292.46517862524166,10,1,8,8,225
292.0398839106251,10,1,8,8,226
292.0398839106251,10,1,8,8,227
292.0125911803848,10,1,8,8,228
291.9782411974643,10,1,8,8,229
292.0125911803848,10,1,8,8,230
292.4378480015463,10,1,8,8,231
292.5159017305226,10,1,8,8,232
292.5159017305226,10,1,8,8,233
292.48856874989804,10,1,8,8,234
292.48856874989804,10,1,8,8,235
292.41052231434077,10,1,8,8,236
291.9681310079355,10,1,8,8,237
291.9681310079355,10,1,8,8,238
291.9853033801728,10,1,8,8,239
292.4277207062268,10,1,8,8,240
292.4277207062268,10,1,8,8,241
292.37307721997263,10,1,8,8,242
291.94085158981784,10,1,8,8,243
291.94085158981784,10,1,8,8,244
291.9307425646895,10,1,8,8,245
291.9307425646895,10,1,8,8,246
291.9307425646895,10,1,8,8,247
291.9206332302725,10,1,8,8,248
291.94085158981784,10,1,8,8,249
292.37307721997263,10,1,8,8,250
292.37307721997263,10,1,8,8,251
292.4003964956385,10,1,8,8,252
291.97519109692246,10,1,8,8,253
291.97519109692246,10,1,8,8,254
291.9307425646895,10,1,8,8,255
291.9307425646895,10,1,8,8,0
292.3902703670057,10,1,8,8,1
292.3902703670057,10,1,8,8,2
291.9853033801728,10,1,8,8,3
291.9853033801728,10,1,8,8,4
292.37307721997263,10,1,8,8,5
292.3832015623372,10,1,8,8,6
292.3832015623372,10,1,8,8,7
292.3832015623372,10,1,8,8,8
292.3902703670057,10,1,8,8,9
292.4003964956385,10,1,8,8,10
292.4003964956385,10,1,8,8,11
292.4003964956385,10,1,8,8,12
291.94790970000884,10,1,8,8,13
292.3902703670057,10,1,8,8,14
291.94790970000884,10,1,8,8,15
291.94790970000884,10,1,8,8,16
291.94790970000884,10,1,8,8,17
291.97519109692246,10,1,8,8,18
291.97519109692246,10,1,8,8,19
291.97519109692246,10,1,8,8,20
291.9377985820952,10,1,8,8,21
291.9377985820952,10,1,8,8,22
291.9377985820952,10,1,8,8,23
292.35282760621385,10,1,8,8,24
292.35282760621385,10,1,8,8,25
292.35282760621385,10,1,8,8,26
292.3902703670057,10,1,8,8,27
292.3902703670057,10,1,8,8,28
291.9105235868086,10,1,8,8,29
291.9105235868086,10,1,8,8,30
291.94790970000884,10,1,8,8,31
292.38014392868473,10,1,8,8,32
291.94790970000884,10,1,8,8,33
292.32551621681876,10,1,8,8,34
292.32551621681876,10,1,8,8,35
292.35282760621385,10,1,8,8,36
292.35282760621385,10,1,8,8,37
292.35282760621385,10,1,8,8,38
292.35282760621385,10,1,8,8,39
292.3700171809179,10,1,8,8,40
292.3700171809179,10,1,8,8,41
292.3700171809179,10,1,8,8,42
292.3700171809179,10,1,8,8,43
292.342702335304,10,1,8,8,44
291.9105235868086,10,1,8,8,45
291.9105235868086,10,1,8,8,46
291.9105235868086,10,1,8,8,47
291.9004136345399,10,1,8,8,48
291.9004136345399,10,1,8,8,49
291.9377985820952,10,1,8,8,50
291.9377985820952,10,1,8,8,51
292.39341346720266,10,1,8,8,52
291.9276871552037,10,1,8,8,53
291.9276871552037,10,1,8,8,54
291.8612167808533,10,1,8,8,55
291.8511080064148,10,1,8,8,56
291.8612167808533,10,1,8,8,57
291.9276871552037,10,1,8,8,58
291.9276871552037,10,1,8,8,59
292.3598901239474,10,1,8,8,60
291.9276871552037,10,1,8,8,61
292.342702335304,10,1,8,8,62
292.3325767553635,10,1,8,8,63
292.342702335304,10,1,8,8,64
292.3598901239474,10,1,8,8,65
292.3598901239474,10,1,8,8,66
292.35282760621385,10,1,8,8,67
292.35282760621385,10,1,8,8,68
292.35282760621385,10,1,8,8,69
292.3598901239474,10,1,8,8,70
292.3598901239474,10,1,8,8,71
292.4207306692294,10,1,8,8,72
292.3598901239474,10,1,8,8,73
291.9074633754548,10,1,8,8,74
291.9074633754548,10,1,8,8,75
292.397336960615,10,1,8,8,76
292.44185983766914,10,1,8,8,77
292.4652486392502,10,1,8,8,78
292.44185983766914,10,1,8,8,79
291.98224897767204,10,1,8,8,80
291.94485239178357,10,1,8,8,81
291.98224897767204,10,1,8,8,82
291.8955434833505,10,1,8,8,83
291.9347388724145,10,1,8,8,84
291.9347388724145,10,1,8,8,85
292.38720842633455,10,1,8,8,86
292.38720842633455,10,1,8,8,87
292.38720842633455,10,1,8,8,88
292.38720842633455,10,1,8,8,89
291.86826874017,10,1,8,8,90
291.97213429161536,10,1,8,8,91
291.97213429161536,10,1,8,8,92
292.3770795829196,10,1,8,8,93
292.4044013426345,10,1,8,8,94
292.4044013426345,10,1,8,8,95
292.4044013426345,10,1,8,8,96
292.38720842633455,10,1,8,8,97
292.38720842633455,10,1,8,8,98
292.38720842633455,10,1,8,8,99
292.38720842633455,10,1,8,8,100
292.4044013426345,10,1,8,8,101
292.3770795829196,10,1,8,8,102
292.3770795829196,10,1,8,8,103
292.3770795829196,10,1,8,8,104
292.38720842633455,10,1,8,8,105
292.4044013426345,10,1,8,8,106
292.4044013426345,10,1,8,8,107
292.4044013426345,10,1,8,8,108
292.4044013426345,10,1,8,8,109
292.4044013426345,10,1,8,8,110
292.39427071239146,10,1,8,8,111
292.39427071239146,10,1,8,8,112
292.43172803844817,10,1,8,8,113
292.43172803844817,10,1,8,8,114
292.39427071239146,10,1,8,8,115
292.39427071239146,10,1,8,8,116
292.36695043061235,10,1,8,8,117
292.36695043061235,10,1,8,8,118
292.36695043061235,10,1,8,8,119
292.3770795829196,10,1,8,8,120
292.39427071239146,10,1,8,8,121
292.39427071239146,10,1,8,8,122
292.39427071239146,10,1,8,8,123
292.3770795829196,10,1,8,8,124
292.3770795829196,10,1,8,8,125
292.3770795829196,10,1,8,8,126
292.3841397733254,10,1,8,8,127
292.3841397733254,10,2,3,1,129
100.18044478239952,10,2,3,1,130
100.15584233742467,10,2,3,1,131
99.66622870545207,10,2,3,1,132
99.66622870545207,10,2,3,1,133
99.66622870545207,10,2,3,1,134
99.66968439174146,10,2,3,1,135
99.68619778302346,10,2,3,1,136
99.66968439174146,10,2,3,1,137
99.67556382692781,10,2,3,1,138
99.66622870545207,10,2,3,1,139
99.67556382692781,10,2,3,1,140
99.66277291207602,10,2,3,1,141
100.15584233742467,10,2,3,1,142
99.67210752907906,10,2,3,1,143
99.67556382692781,10,2,3,1,144
99.67556382692781,10,2,3,1,145
99.69078183310768,10,2,3,1,146
100.16175004096641,10,2,3,1,147
99.6955354097237,10,2,3,1,148
100.15587431448876,10,2,3,1,149
99.6955354097237,10,2,3,1,150
99.6814438359423,10,2,3,1,151
99.6814438359423,10,2,3,1,152
99.6814438359423,10,2,3,1,153
100.16175004096641,10,2,3,1,154
99.6814438359423,10,2,3,1,155
100.15584233742467,10,2,3,1,156
100.15236956734984,10,2,3,1,157
100.15584233742467,10,2,3,1,158
100.15584233742467,10,2,3,1,159
100.15584233742467,10,2,3,1,160
100.15584233742467,10,2,3,1,161
100.14892830122038,10,2,3,1,162
100.17697074949291,10,2,3,1,163
100.16175004096641,10,2,3,1,164
100.16175004096641,10,2,3,1,165
100.15236956734984,10,2,3,1,166
100.15236956734984,10,2,3,1,167
100.15827665635146,10,2,3,1,168
100.15827665635146,10,2,3,1,169
99.66865112416708,10,2,3,1,170
99.66395409307873,10,2,3,1,171
99.66865112416708,10,2,3,1,172
99.66865112416708,10,2,3,1,173
99.66865112416708,10,2,3,1,174
100.13951842076258,10,2,3,1,175
99.65819504175093,10,2,3,1,176
100.13951842076258,10,2,3,1,177
99.65473966174584,10,2,3,1,178
99.65473966174584,10,2,3,1,179
99.6499845885494,10,2,3,1,180
99.6499845885494,10,2,3,1,181
99.6699489616343,10,2,3,1,182
100.13604594268861,10,2,3,1,183
100.13604594268861,10,2,3,1,184
100.14299079145124,10,2,3,1,185
100.14889668974602,10,2,3,1,186
100.14889668974602,10,2,3,1,187
100.13017181644685,10,2,3,1,188
99.64652908574679,10,2,3,1,189
100.12666987776272,10,2,3,1,190
100.12666987776272,10,2,3,1,191
100.12666987776272,10,2,3,1,192
100.13604594268861,10,2,3,1,193
100.13014184895749,10,2,3,1,194
100.13014184895749,10,2,3,1,195
99.66061572376722,10,2,3,1,196
99.65240489026087,10,2,3,1,197
99.65586100439721,10,2,3,1,198
99.65586100439721,10,2,3,1,199
100.14542370469682,10,2,3,1,200
100.14542370469682,10,2,3,1,201
100.14542370469682,10,2,3,1,202
100.14195061228594,10,2,3,1,203
100.14195061228594,10,2,3,1,204
100.14195061228594,10,2,3,1,205
100.13257335731288,10,2,3,1,206
100.12319779932618,10,2,3,1,207
99.65240489026087,10,2,3,1,208
99.65240489026087,10,2,3,1,209
99.65586100439721,10,2,3,1,210
100.13257335731288,10,2,3,1,211
99.65586100439721,10,2,3,1,212
99.64782858137156,10,2,3,1,213
99.64307347616696,10,2,3,1,214
99.64782858137156,10,2,3,1,215
100.13847741259697,10,2,3,1,216
100.13847741259697,10,2,3,1,217
100.13257335731288,10,2,3,1,218
99.64652908574679,10,2,3,1,219
100.13257335731288,10,2,3,1,220
99.64652908574679,10,2,3,1,221
100.13260378095961,10,2,3,1,222
99.64652908574679,10,2,3,1,223
100.12319779932618,10,2,3,1,224
100.12319779932618,10,2,3,1,225
100.12319779932618,10,2,3,1,226
100.12319779932618,10,2,3,1,227
100.12910066471906,10,2,3,3,229
318.10907254969493,10,2,3,3,230
318.1278307507499,10,2,3,3,231
318.1465907818597,10,2,3,3,232
318.17489086345154,10,2,3,3,233
318.17489086345154,10,2,3,3,234
318.09804629729405,10,2,3,3,235
318.08701970349347,10,2,3,3,236
318.08701970349347,10,2,3,3,237
318.06826723264925,10,2,3,3,238
318.0572422477743,10,2,3,3,239
318.0572422477743,10,2,3,3,240
