BIOZ1_TOMO,EXC_FREQ_KHZ,GND_OUTPUT,EXC_OUTPUT,SENSE_OUTPUT,PACKET_NUMBER
55.83153575348687,10,5,7,9,224
54.80163558234043,10,5,7,10,226
54.26890800119147,10,5,7,11,230
53.79602797663224,10,5,7,12,234
53.54108596700943,10,5,7,13,238
53.227075019211824,10,5,7,14,242
53.01189575347726,10,5,7,15,246
52.618401215445125,10,5,7,16,250
52.281962630238006,10,5,8,1,2
51.80192056927461,10,5,8,2,6
51.28472407228568,10,5,8,3,10
49.21554178568431,10,5,8,4,14
46.80939440727916,10,5,8,6,18
58.786362543157914,10,5,8,7,22
102.88148694362671,10,5,8,8,26
64.02113466595631,10,5,8,9,30
60.671976234941404,10,5,8,10,34
59.45374999089397,10,5,8,11,38
58.52709425955027,10,5,8,12,42
58.06237379747136,10,5,8,13,46
57.58568587253081,10,5,8,14,50
57.24138652760122,10,5,8,15,54
56.748976564232315,10,5,8,16,58
54.27384449335131,10,5,9,1,66
53.7143789231278,10,5,9,2,70
53.11941394984466,10,5,9,3,74
50.884199948087236,10,5,9,4,78
46.13457185632606,10,5,9,6,82
56.185308253337126,10,5,9,7,86
63.960271686401455,10,5,9,8,90
105.22735341180785,10,5,9,9,94
67.30295047727867,10,5,9,10,98
64.07150167164825,10,5,9,11,102
62.42001850838875,10,5,9,12,106
61.55779264424317,10,5,9,13,110
60.85702967471584,10,5,9,14,114
60.339314763581086,10,5,9,15,118
59.71815130129998,10,5,9,16,122
56.048031299002226,10,5,10,1,130
55.41326855350794,10,5,10,2,134
54.7640662368172,10,5,10,3,138
52.442325906537604,10,5,10,4,142
45.84941735764231,10,5,10,6,146
55.16148178029306,10,5,10,7,150
60.69645961115235,10,5,10,8,154
67.41870464351884,10,5,10,9,158
109.61010360303398,10,5,10,10,162
70.7046766546329,10,5,10,11,166
66.81880686777671,10,5,10,12,170
65.20536995865933,10,5,10,13,174
64.07883467450756,10,5,10,14,178
63.29696313565968,10,5,10,15,182
62.54309900409517,10,5,10,16,186
57.698119792493785,10,5,11,1,194
56.95364065604932,10,5,11,2,198
56.26077405429663,10,5,11,3,202
53.8128142613827,10,5,11,4,206
45.86208900284269,10,5,11,6,210
54.78274488192632,10,5,11,7,214
59.59530974637414,10,5,11,8,218
64.30990381762135,10,5,11,9,222
70.80859536012002,10,5,11,10,226
112.65016933549995,10,5,11,11,230
72.72731878880882,10,5,11,12,234
69.02857478076932,10,5,11,13,238
67.23792552746669,10,5,11,14,242
66.11221453779008,10,5,11,15,246
65.14365692471945,10,5,11,16,250
59.35473836460076,10,5,12,1,2
58.44175095830059,10,5,12,2,6
57.672834613652284,10,5,12,3,10
55.1273465000438,10,5,12,4,14
45.77524364971749,10,5,12,6,18
54.49561649954778,10,5,12,7,22
58.8966955460543,10,5,12,8,26
62.8693219008874,10,5,12,9,30
67.14964384187509,10,5,12,10,34
72.82933379317913,10,5,12,11,38
113.45455725903882,10,5,12,12,42
74.79949870390736,10,5,12,13,46
70.82723456296546,10,5,12,14,50
68.99436941968857,10,5,12,15,54
67.72514563787425,10,5,12,16,58
60.9049068411304,10,5,13,1,66
59.81941346880137,10,5,13,2,70
59.00121812729488,10,5,13,3,74
56.32341511299838,10,5,13,4,78
45.66272223251919,10,5,13,6,82
54.227885298481105,10,5,13,7,86
58.35212939530018,10,5,13,8,90
61.91896781726708,10,5,13,9,94
65.45911731123928,10,5,13,10,98
69.09202658823446,10,5,13,11,102
74.72623843555056,10,5,13,12,106
115.25449099765501,10,5,13,13,110
76.29906440123224,10,5,13,14,114
72.4599082761227,10,5,13,15,118
70.5758910437217,10,5,13,16,122
62.69175552470783,10,5,14,1,130
61.391816112829666,10,5,14,2,134
60.40221499293831,10,5,14,3,138
57.69624603806104,10,5,14,4,142
45.48595394343789,10,5,14,6,146
53.88764411354192,10,5,14,7,150
57.869242050947236,10,5,14,8,154
61.1815077365626,10,5,14,9,158
64.28850782571418,10,5,14,10,162
67.2707574963534,10,5,14,11,166
70.76000013994079,10,5,14,12,170
76.27663601286302,10,5,14,13,174
116.33750400185806,10,5,14,14,178
78.14698805703392,10,5,14,15,182
74.57401084098501,10,5,14,16,186
64.85637818238165,10,5,15,1,194
63.20041114236281,10,5,15,2,198
62.084834444088386,10,5,15,3,202
59.19378746545684,10,5,15,4,206
45.41605957617434,10,5,15,6,210
53.65151723321418,10,5,15,7,214
57.45690148609871,10,5,15,8,218
60.60411056766742,10,5,15,9,222
63.43855519895395,10,5,15,10,226
66.0916487375042,10,5,15,11,230
68.86327575816358,10,5,15,12,234
72.44471113910924,10,5,15,13,238
78.06952707632064,10,5,15,14,242
118.64527386085365,10,5,15,15,246
81.08439824932576,10,5,15,16,250
68.34431914524296,10,5,16,1,2
65.60396335508892,10,5,16,2,6
64.2474381234506,10,5,16,3,10
61.27029975894554,10,5,16,4,14
45.16919646449367,10,5,16,6,18
53.365678829132754,10,5,16,7,22
57.04342610807156,10,5,16,8,26
60.0553709950192,10,5,16,9,30
62.72237659444834,10,5,16,10,34
65.13708992216334,10,5,16,11,38
67.62313087837914,10,5,16,12,42
70.55002803759642,10,5,16,13,46
74.30689112203872,10,5,16,14,50
80.73008290430116,10,5,16,15,54
123.27441164310244,10,5,16,16,58
40.64705899410076,10,6,7,1,66
41.10443310402121,10,6,7,2,70
40.6803250681199,10,6,7,3,74
39.92718661981919,10,6,7,4,78
34.47361858105975,10,6,7,5,82
82.78864317454271,10,6,7,7,86
46.353868427281164,10,6,7,8,90
43.83092819899031,10,6,7,9,94
43.728889909289016,10,6,7,10,98
42.76204957199087,10,6,7,11,102
43.1761930364072,10,6,7,12,106
42.74812752937049,10,6,7,13,110
42.815742889567446,10,6,7,14,114
42.06227821088482,10,6,7,15,118
42.023680335185006,10,6,7,16,122
45.956087744335655,10,6,8,1,130
45.92406755323412,10,6,8,2,134
45.634409430009946,10,6,8,3,138
44.402258738219615,10,6,8,4,142
36.21111539008934,10,6,8,5,146
45.92200540655206,10,6,8,7,150
93.05839688602744,10,6,8,8,154
53.98074299510995,10,6,8,9,158
51.55045145019461,10,6,8,10,162
50.041861503146364,10,6,8,11,166
49.834504134232624,10,6,8,12,170
49.35810837585131,10,6,8,13,174
49.09050954342858,10,6,8,14,178
48.203163775927,10,6,8,15,182
47.940985983061026,10,6,8,16,186
48.41050989794337,10,6,9,1,194
48.474764501652,10,6,9,2,198
48.17707703822389,10,6,9,3,202
46.76916655065124,10,6,9,4,206
36.750647726082434,10,6,9,5,210
43.882126168591135,10,6,9,7,214
54.56555262233852,10,6,9,8,218
96.23781575139954,10,6,9,9,222
58.788145564755034,10,6,9,10,226
55.4281800530083,10,6,9,11,230
54.3191631212307,10,6,9,12,234
53.5211212034966,10,6,9,13,238
52.93112244187052,10,6,9,14,242
52.15989603790552,10,6,9,15,246
51.56724772462771,10,6,9,16,250
50.57689496539552,10,6,10,1,2
50.49794119494309,10,6,10,2,6
50.11076660467905,10,6,10,3,10
48.57720806506395,10,6,10,4,14
37.108715061284464,10,6,10,5,18
43.21929571757129,10,6,10,7,22
51.6440188857884,10,6,10,8,26
58.48069238863436,10,6,10,9,30
101.00650316920098,10,6,10,10,34
62.42898625162411,10,6,10,11,38
58.99742984950868,10,6,10,12,42
57.42299462926189,10,6,10,13,46
56.448403314666926,10,6,10,14,50
55.45259280590379,10,6,10,15,54
54.68714480912928,10,6,10,16,58
52.48688840517905,10,6,11,1,66
52.2221355345955,10,6,11,2,70
51.74935245782987,10,6,11,3,74
50.12976079188785,10,6,11,4,78
37.428427831217675,10,6,11,5,82
43.012278540893284,10,6,11,7,86
50.69878460451515,10,6,11,8,90
55.48750406852791,10,6,11,9,94
62.76812160031633,10,6,11,10,98
104.55748639018495,10,6,11,11,102
64.96989572620448,10,6,11,12,106
61.39187069896875,10,6,11,13,110
59.72394872087174,10,6,11,14,114
58.43967708993026,10,6,11,15,118
57.327418566512044,10,6,11,16,122
54.1916306545053,10,6,12,1,130
53.83046792880225,10,6,12,2,134
53.2346772966034,10,6,12,3,138
51.52544137165128,10,6,12,4,142
37.60497250498194,10,6,12,5,146
42.804530933520155,10,6,12,7,150
50.07198546900979,10,6,12,8,154
53.97005164769049,10,6,12,9,158
59.07067892595322,10,6,12,10,162
64.81605463801411,10,6,12,11,166
105.771307544186,10,6,12,12,170
67.1464249078587,10,6,12,13,174
63.36008136040979,10,6,12,14,178
61.41358013112381,10,6,12,15,182
59.99672080475301,10,6,12,16,186
55.770384784674576,10,6,13,1,194
55.20472317713715,10,6,13,2,198
54.599444039642094,10,6,13,3,202
52.714418563570995,10,6,13,4,206
37.66904611169986,10,6,13,5,210
42.51131253774955,10,6,13,7,214
49.51572031176302,10,6,13,8,218
53.01738230127645,10,6,13,9,222
57.38865061656385,10,6,13,10,226
61.04559314993588,10,6,13,11,230
67.06789097428026,10,6,13,12,234
107.64738414717024,10,6,13,13,238
68.81478182719142,10,6,13,14,242
64.92137366548293,10,6,13,15,246
62.88175850764697,10,6,13,16,250
57.569452803053146,10,6,14,1,2
56.778429426799555,10,6,14,2,6
56.090276340925186,10,6,14,3,10
54.03291850388776,10,6,14,4,14
37.66025699194673,10,6,14,5,18
42.25268612676958,10,6,14,7,22
49.08298083379776,10,6,14,8,26
52.27007343064786,10,6,14,9,30
56.35372473463813,10,6,14,10,34
59.266743233519875,10,6,14,11,38
63.182686669447136,10,6,14,12,42
68.77308716394087,10,6,14,13,46
108.98824933682751,10,6,14,14,50
70.6982786340531,10,6,14,15,54
66.77723055070878,10,6,14,16,58
59.8811052766955,10,6,15,1,66
58.6739562253089,10,6,15,2,70
57.850333246393,10,6,15,3,74
55.7610710275129,10,6,15,4,78
37.76373901240581,10,6,15,5,82
42.131889828107404,10,6,15,7,86
48.83475609997162,10,6,15,8,90
51.957343118792764,10,6,15,9,94
55.66458494911095,10,6,15,10,98
58.236682756539565,10,6,15,11,102
61.48134759552689,10,6,15,12,106
65.09474059119654,10,6,15,13,110
70.90333363697808,10,6,15,14,114
111.50687067369053,10,6,15,15,118
73.34038724909401,10,6,15,16,122
63.7387638356363,10,6,16,1,130
61.3662199879564,10,6,16,2,134
60.24109454272256,10,6,16,3,138
58.053235334436295,10,6,16,4,142
37.95097302785522,10,6,16,5,146
42.06014928540176,10,6,16,7,150
48.57642055421868,10,6,16,8,154
51.52839036231106,10,6,16,9,158
55.21387526112712,10,6,16,10,162
57.41650737908532,10,6,16,11,166
60.51869116319536,10,6,16,12,170
63.469850412877506,10,6,16,13,174
67.47364268467213,10,6,16,14,178
73.80154097317585,10,6,16,15,182
115.54769178401735,10,6,16,16,186
40.386090382012156,10,7,8,1,194
40.266665881143844,10,7,8,2,198
40.22450307589606,10,7,8,3,202
39.96218347868347,10,7,8,4,206
37.900758416568706,10,7,8,5,210
35.4423123333281,10,7,8,6,214
81.8785519769338,10,7,8,8,218
45.66796975915545,10,7,8,9,222
43.23434413242711,10,7,8,10,226
42.64345170389302,10,7,8,11,230
42.15193174910435,10,7,8,12,234
41.95390184112297,10,7,8,13,238
41.67641895959064,10,7,8,14,242
41.713339200368765,10,7,8,15,246
41.50398735286633,10,7,8,16,250
45.14532034085074,10,7,9,1,2
44.94776726284144,10,7,9,2,6
44.82801672054591,10,7,9,3,10
44.354220899465936,10,7,9,4,14
40.531582239091364,10,7,9,5,18
37.59715852010486,10,7,9,6,22
45.64410348116245,10,7,9,8,26
89.48273259536198,10,7,9,9,30
52.615896533952785,10,7,9,10,34
49.97116152343697,10,7,9,11,38
48.741677246486255,10,7,9,12,42
48.183101413124305,10,7,9,13,46
47.65519042263248,10,7,9,14,50
47.4986009643067,10,7,9,15,54
47.14088383380373,10,7,9,16,58
48.01708433976712,10,7,10,1,66
47.726137699943706,10,7,10,2,70
47.51529218925078,10,7,10,3,74
46.958856585722664,10,7,10,4,78
41.615487576451876,10,7,10,5,82
38.360984149759815,10,7,10,6,86
43.3741282223886,10,7,10,8,90
52.74082078525909,10,7,10,9,94
95.60072487436277,10,7,10,10,98
57.583371712147695,10,7,10,11,102
54.05064003996933,10,7,10,12,106
52.7537746436176,10,7,10,13,110
51.8408248635352,10,7,10,14,114
51.36357622236852,10,7,10,15,118
50.83537470406831,10,7,10,16,122
50.038954374412704,10,7,11,1,130
49.615669477324815,10,7,11,2,134
49.41290746783905,10,7,11,3,138
48.67580102358699,10,7,11,4,142
42.148973468204076,10,7,11,5,146
38.68152814826546,10,7,11,6,150
42.60121344550324,10,7,11,8,154
49.97031712560427,10,7,11,9,158
57.4753904394485,10,7,11,10,162
99.73519448023866,10,7,11,11,166
60.255631633879695,10,7,11,12,170
56.9181283096475,10,7,11,13,174
55.30426950503743,10,7,11,14,178
54.43068422789329,10,7,11,15,182
53.73270370241233,10,7,11,16,186
51.88622233677408,10,7,12,1,194
51.33056838835636,10,7,12,2,198
51.0391814156186,10,7,12,3,202
50.21751433673094,10,7,12,4,206
42.43530061485906,10,7,12,5,210
38.86173944195996,10,7,12,6,214
42.13094807775664,10,7,12,8,218
48.76288335260619,10,7,12,9,222
53.99238222967714,10,7,12,10,226
60.281176692432254,10,7,12,11,230
101.25860594073073,10,7,12,12,234
62.898600619176875,10,7,12,13,238
59.23237659141778,10,7,12,14,242
57.673615805914,10,7,12,15,246
56.662790712800295,10,7,12,16,250
53.64836750038962,10,7,13,1,2
52.919518365734454,10,7,13,2,6
52.57609771861405,10,7,13,3,10
51.66239582841465,10,7,13,4,14
42.659461898861814,10,7,13,5,18
38.96450117989398,10,7,13,6,22
41.83535873280194,10,7,13,8,26
48.084541686975484,10,7,13,9,30
52.52405976716068,10,7,13,10,34
56.81082207965707,10,7,13,11,38
62.82640614721857,10,7,13,12,42
103.6517809497843,10,7,13,13,46
64.97285196686494,10,7,13,14,50
61.396812472137434,10,7,13,15,54
59.82093788647255,10,7,13,16,58
55.71258263363804,10,7,14,1,66
54.75600165103144,10,7,14,2,70
54.2921825194867,10,7,14,3,74
53.28913455359498,10,7,14,4,78
42.96946664965017,10,7,14,5,82
39.143017038822535,10,7,14,6,86
41.67133241584489,10,7,14,8,90
47.70054477122529,10,7,14,9,94
51.75359423778637,10,7,14,10,98
55.34034226944955,10,7,14,11,102
59.207529675009184,10,7,14,12,106
65.03504744630943,10,7,14,13,110
105.42011097395687,10,7,14,14,114
67.43712481730347,10,7,14,15,118
63.975772919206655,10,7,14,16,122
58.21763599251798,10,7,15,1,130
56.916190550976324,10,7,15,2,134
56.31138166698807,10,7,15,3,138
55.18507535159288,10,7,15,4,142
43.32839829109138,10,7,15,5,146
39.34189090411058,10,7,15,6,150
41.64727590898958,10,7,15,8,154
47.46106897805448,10,7,15,9,158
51.290863410389505,10,7,15,10,162
54.536587529346555,10,7,15,11,166
57.66766033858624,10,7,15,12,170
61.51050370246849,10,7,15,13,174
67.49565967203579,10,7,15,14,178
108.32628781066319,10,7,15,15,182
70.67627519692233,10,7,15,16,186
62.12995012304477,10,7,16,1,194
59.73163659619127,10,7,16,2,198
58.88266821053524,10,7,16,3,202
57.619542170867334,10,7,16,4,206
43.655074653342155,10,7,16,5,210
39.48025606190278,10,7,16,6,214
41.58664540098992,10,7,16,8,218
47.25981925904946,10,7,16,9,222
50.927149883712694,10,7,16,10,226
53.940437607666105,10,7,16,11,230
56.830089539306826,10,7,16,12,234
60.05966032786166,10,7,16,13,238
64.12143223736201,10,7,16,14,242
70.80001842745403,10,7,16,15,246
113.46285702474029,10,7,16,16,250
39.70881009246584,10,8,9,1,2
40.12103900803498,10,8,9,2,6
40.13457700195496,10,8,9,3,10
39.39356442474852,10,8,9,4,14
37.62452545003617,10,8,9,5,18
37.77119931410258,10,8,9,6,22
35.04763309723159,10,8,9,7,26
79.37525405424965,10,8,9,9,30
44.96274379864666,10,8,9,10,34
42.256432895231626,10,8,9,11,38
42.19013061387216,10,8,9,12,42
41.75443839058037,10,8,9,13,46
41.583576943294865,10,8,9,14,50
40.711605537120036,10,8,9,15,54
40.61913349492839,10,8,9,16,58
44.811294202147884,10,8,10,1,66
45.14570744562718,10,8,10,2,70
45.066514109185434,10,8,10,3,74
44.153215430123936,10,8,10,4,78
40.8887019864863,10,8,10,5,82
40.69075424684994,10,8,10,6,86
37.30659008151865,10,8,10,7,90
44.217089043632484,10,8,10,9,94
90.15262617535805,10,8,10,10,98
52.4528070747898,10,8,10,11,102
49.731660436198176,10,8,10,12,106
48.555956084089416,10,8,10,13,110
47.944756021269306,10,8,10,14,114
47.084730421084316,10,8,10,15,118
46.63615589466151,10,8,10,16,122
47.5114246078713,10,8,11,1,130
47.77596409790777,10,8,11,2,134
47.61651953188242,10,8,11,3,138
46.57225873784453,10,8,11,4,142
42.14133207854612,10,8,11,5,146
41.71895032422144,10,8,11,6,150
37.9885129712495,10,8,11,7,154
42.194107199012635,10,8,11,9,158
52.70993992477168,10,8,11,10,162
95.62535000857838,10,8,11,11,166
56.63887301172566,10,8,11,12,170
53.463825802294814,10,8,11,13,174
52.11451969324785,10,8,11,14,178
51.05636374390734,10,8,11,15,182
50.24069298190156,10,8,11,16,186
49.78691067592487,10,8,12,1,194
49.93333229319253,10,8,12,2,198
49.721659434520966,10,8,12,3,202
48.59615286552946,10,8,12,4,206
42.93071425315638,10,8,12,5,210
42.37924079644857,10,8,12,6,214
38.436206588443895,10,8,12,7,218
41.46557321093984,10,8,12,9,222
49.72081907570357,10,8,12,10,226
56.51019970733117,10,8,12,11,230
98.13199974908031,10,8,12,12,234
60.016746057312275,10,8,12,13,238
56.52219805786739,10,8,12,14,242
54.81622262616627,10,8,12,15,246
53.651276234757745,10,8,12,16,250
51.89601934241882,10,8,13,1,2
51.8694810740435,10,8,13,2,6
51.57828914920381,10,8,13,3,10
50.3995130321738,10,8,13,4,14
43.51797142253899,10,8,13,5,18
42.869240679532695,10,8,13,6,22
38.71650564125082,10,8,13,7,26
41.13487967238889,10,8,13,9,30
48.61270704862701,10,8,13,10,34
53.299480476689375,10,8,13,11,38
59.99633699764843,10,8,13,12,42
101.19926497049379,10,8,13,13,46
62.524870478072806,10,8,13,14,50
58.8848012871163,10,8,13,15,54
57.07174004645424,10,8,13,16,58
54.13469822540164,10,8,14,1,66
53.892718770221165,10,8,14,2,70
53.5087580225253,10,8,14,3,74
52.14885300767523,10,8,14,4,78
43.96324586760112,10,8,14,5,82
43.18346928663796,10,8,14,6,86
38.89422041547774,10,8,14,7,90
40.83912565400846,10,8,14,9,94
47.92221899877198,10,8,14,10,98
51.9107542202551,10,8,14,11,102
56.51461935459306,10,8,14,12,106
62.535154070251444,10,8,14,13,110
103.22524674970016,10,8,14,14,114
65.0995800194261,10,8,14,15,118
61.3080980323492,10,8,14,16,122
56.67934995301813,10,8,15,1,130
56.09265164716156,10,8,15,2,134
55.579715309568904,10,8,15,3,138
54.13654849663166,10,8,15,4,142
44.323299436688856,10,8,15,5,146
43.40994746465823,10,8,15,6,150
38.986815568181214,10,8,15,7,154
40.68091704061466,10,8,15,9,158
47.50154591024489,10,8,15,10,162
51.10715059519284,10,8,15,11,166
55.01066811432413,10,8,15,12,170
59.06271108766373,10,8,15,13,174
65.2272078245037,10,8,15,14,178
106.15567016246005,10,8,15,15,182
68.09920774176213,10,8,15,16,186
60.693299310560555,10,8,16,1,194
58.95830230252559,10,8,16,2,198
58.18124526023187,10,8,16,3,202
56.574519007028414,10,8,16,4,206
44.692297460444024,10,8,16,5,210
43.61673849392625,10,8,16,6,214
39.04806176350602,10,8,16,7,218
40.48956113153209,10,8,16,9,222
47.22305550806903,10,8,16,10,226
50.469595318672845,10,8,16,11,230
54.25916924506609,10,8,16,12,234
57.661206053363706,10,8,16,13,238
61.94154266892191,10,8,16,14,242
68.55987706036352,10,8,16,15,246
110.6275120069476,10,8,16,16,250
40.15921508222139,10,9,10,1,2
40.08164016307899,10,9,10,2,6
40.38389962002811,10,9,10,3,10
39.82838826798642,10,9,10,4,14
38.361176996834715,10,9,10,5,18
38.04463709447179,10,9,10,6,22
37.35750759306495,10,9,10,7,26
35.08609637977193,10,9,10,8,30
80.83521922644425,10,9,10,10,34
45.54716217122699,10,9,10,11,38
42.66729297544062,10,9,10,12,42
42.25818679941973,10,9,10,13,46
41.478432593558125,10,9,10,14,50
41.90160099232813,10,9,10,15,54
41.10624546030768,10,9,10,16,58
44.93040713159794,10,9,11,1,66
44.745192239093925,10,9,11,2,70
45.03643461986284,10,9,11,3,74
44.308902115810035,10,9,11,4,78
41.664424997797546,10,9,11,5,82
41.13552990071344,10,9,11,6,86
40.09115213780105,10,9,11,7,90
37.07940032984675,10,9,11,8,94
44.916805244824296,10,9,11,10,98
90.67826546486249,10,9,11,11,102
51.61782344140489,10,9,11,12,106
49.267010067883376,10,9,11,13,110
47.66712735833724,10,9,11,14,114
47.733377104275846,10,9,11,15,118
46.714241794585476,10,9,11,16,122
47.92463727962221,10,9,12,1,130
47.63433197697936,10,9,12,2,134
47.92154296286905,10,9,12,3,138
47.04220852217056,10,9,12,4,142
43.1598418489145,10,9,12,5,146
42.501238909049626,10,9,12,6,150
41.19182117121663,10,9,12,7,154
37.780146302350424,10,9,12,8,158
42.62294886346655,10,9,12,10,162
52.220228086501486,10,9,12,11,166
94.24234727827755,10,9,12,12,170
56.53631914066258,10,9,12,13,174
53.02822665150202,10,9,12,14,178
52.14419942547914,10,9,12,15,182
50.78110122096638,10,9,12,16,186
50.39296689283268,10,9,13,1,194
49.928890878242946,10,9,13,2,198
50.140705999792715,10,9,13,3,202
49.14900286831967,10,9,13,4,206
44.09389319417215,10,9,13,5,210
43.29988811184666,10,9,13,6,214
41.81787943376114,10,9,13,7,218
38.149699289806925,10,9,13,8,222
41.85409883572491,10,9,13,10,226
49.422879039283366,10,9,13,11,230
56.02700349554291,10,9,13,12,234
98.08043482340626,10,9,13,13,238
59.55180282291241,10,9,13,14,242
56.479723344061966,10,9,13,15,246
54.601949143839086,10,9,13,16,250
52.87974427354799,10,9,14,1,2
52.16409679402095,10,9,14,2,6
52.300692554290194,10,9,14,3,10
51.19783071991184,10,9,14,4,14
44.80471498101373,10,9,14,5,18
43.88101457232257,10,9,14,6,22
42.25362121916093,10,9,14,7,26
38.374993593849695,10,9,14,8,30
41.4296368181108,10,9,14,10,34
48.35524898826547,10,9,14,11,38
52.77348069218851,10,9,14,12,42
59.71079158063783,10,9,14,13,46
100.59549694191846,10,9,14,14,50
62.94001731436302,10,9,14,15,54
59.195210441066784,10,9,14,16,58
55.65465558863741,10,9,15,1,66
54.62198094187053,10,9,15,2,70
54.6348678318056,10,9,15,3,74
53.36038255656894,10,9,15,4,78
45.39225216358835,10,9,15,5,82
44.33370590211808,10,9,15,6,86
42.58238038055168,10,9,15,7,90
38.613255240433126,10,9,15,8,94
41.23732898290232,10,9,15,10,98
47.78988392184038,10,9,15,11,102
51.56093591401487,10,9,15,12,106
56.50348370306224,10,9,15,13,110
62.76854789137106,10,9,15,14,114
104.09524304595674,10,9,15,15,118
66.14582545967887,10,9,15,16,122
59.788115055665585,10,9,16,1,130
57.62037141173939,10,9,16,2,134
57.46070228371404,10,9,16,3,138
56.01421223712215,10,9,16,4,142
45.93482764730533,10,9,16,5,146
44.698982855868095,10,9,16,6,150
42.87087288842929,10,9,16,7,154
38.76708189691111,10,9,16,8,158
41.12496396129495,10,9,16,10,162
47.467970564236346,10,9,16,11,166
50.94339456267228,10,9,16,12,170
55.31298339448921,10,9,16,13,174
59.71132281702874,10,9,16,14,178
66.84033081226498,10,9,16,15,182
108.79930739346555,10,9,16,16,186
40.81112999951279,10,10,11,1,194
41.08880437264323,10,10,11,2,198
41.2363357893031,10,10,11,3,202
40.49581891744029,10,10,11,4,206
39.27815087944914,10,10,11,5,210
39.753522480206335,10,10,11,6,214
38.70873767943146,10,10,11,7,218
38.64454787352406,10,10,11,8,222
35.98737558191107,10,10,11,9,226
81.75334880676088,10,10,11,11,230
45.63193696202877,10,10,11,12,234
43.59835153132247,10,10,11,13,238
42.884857304852716,10,10,11,14,242
42.249862215229584,10,10,11,15,246
41.70816678216108,10,10,11,16,250
46.027509669674394,10,10,12,1,2
46.25230517051201,10,10,12,2,6
46.317725032014806,10,10,12,3,10
45.43248815981399,10,10,12,4,14
43.064898556937685,10,10,12,5,18
43.33034844322366,10,10,12,6,22
42.10042093520327,10,10,12,7,26
41.62481456479803,10,10,12,8,30
38.212556348955815,10,10,12,9,34
45.419306088721974,10,10,12,11,38
89.94680437031786,10,10,12,12,42
52.9952350633216,10,10,12,13,46
50.14988387158479,10,10,12,14,50
48.92253580206561,10,10,12,15,54
47.93194169010868,10,10,12,16,58
49.14870834402056,10,10,13,1,66
49.25855239254305,10,10,13,2,70
49.214812771171715,10,10,13,3,74
48.209465032364925,10,10,13,4,78
44.6534685075428,10,10,13,5,82
44.79908161455602,10,10,13,6,86
43.377692900318735,10,10,13,7,90
42.636269891916704,10,10,13,8,94
38.88177357656159,10,10,13,9,98
43.248277364562014,10,10,13,11,102
52.88006159115825,10,10,13,12,106
95.20941127313291,10,10,13,13,110
57.202102836964315,10,10,13,14,114
54.01350101499489,10,10,13,15,118
52.44418941332016,10,10,13,16,122
51.95472768936569,10,10,14,1,130
51.87616681104566,10,10,14,2,134
51.71634403259173,10,10,14,3,138
50.631390043795875,10,10,14,4,142
45.71218203261232,10,10,14,5,146
45.72453639713999,10,10,14,6,150
44.17614739043943,10,10,14,7,154
43.27634633794114,10,10,14,8,158
39.23789612608702,10,10,14,9,162
42.509377830393,10,10,14,11,166
50.06143282513675,10,10,14,12,170
57.20963150704054,10,10,14,13,174
98.52489517995632,10,10,14,14,178
60.88005762929892,10,10,14,15,182
57.34777658696887,10,10,14,16,186
54.94522649260633,10,10,15,1,194
54.52229177331841,10,10,15,2,198
54.23083531998795,10,10,15,3,202
53.01306808996191,10,10,15,4,206
46.50814740973631,10,10,15,5,210
46.44557557412328,10,10,15,6,214
44.76338594356736,10,10,15,7,218
43.71742904728429,10,10,15,8,222
39.56013912463201,10,10,15,9,226
42.19306406809049,10,10,15,11,230
49.0498145008871,10,10,15,12,234
54.23138482213233,10,10,15,13,238
61.03820525001613,10,10,15,14,242
102.53170256989128,10,10,15,15,246
64.65544295552196,10,10,15,16,250
59.21531537950638,10,10,16,1,2
57.78791976572026,10,10,16,2,6
57.228557937823645,10,10,16,3,10
55.877790810145584,10,10,16,4,14
47.23759437880088,10,10,16,5,18
46.99089230468721,10,10,16,6,22
45.229819372874545,10,10,16,7,26
44.060345945831614,10,10,16,8,30
39.765630617785696,10,10,16,9,34
41.96990684206857,10,10,16,11,38
48.604884519782146,10,10,16,12,42
53.17483320345195,10,10,16,13,46
58.10756438375957,10,10,16,14,50
65.21090555506335,10,10,16,15,54
107.57027692980844,10,10,16,16,58
41.977491541389185,10,11,12,1,66
41.86803927953443,10,11,12,2,70
42.360611885324325,10,11,12,3,74
41.6568082033365,10,11,12,4,78
40.45696124834702,10,11,12,5,82
40.308838566928586,10,11,12,6,86
40.060594319850296,10,11,12,7,90
39.66166948722706,10,11,12,8,94
39.59647017455115,10,11,12,9,98
36.63651865685792,10,11,12,10,102
81.60214253144186,10,11,12,12,106
46.754983711307155,10,11,12,13,110
44.4439740290636,10,11,12,14,114
44.07440911717375,10,11,12,15,118
43.056576674602255,10,11,12,16,122
47.25021115354409,10,11,13,1,130
47.00184301210153,10,11,13,2,134
47.50179226750393,10,11,13,3,138
46.62864394286416,10,11,13,4,142
44.23135950293934,10,11,13,5,146
44.01093905527971,10,11,13,6,150
43.5737842406599,10,11,13,7,154
43.11108995000466,10,11,13,8,158
42.50431783062251,10,11,13,9,162
38.77643044376021,10,11,13,10,166
46.222418461269996,10,11,13,12,170
91.21466763411743,10,11,13,13,174
53.85273090049575,10,11,13,14,178
51.296681341061486,10,11,13,15,182
49.7240374308212,10,11,13,16,186
50.89828463411237,10,11,14,1,194
50.422064829658915,10,11,14,2,198
50.81891455822961,10,11,14,3,202
49.82660787274581,10,11,14,4,206
46.136065823228854,10,11,14,5,210
45.88389980761349,10,11,14,6,214
45.17021774336906,10,11,14,7,218
44.62790294885147,10,11,14,8,222
43.60884901036557,10,11,14,9,226
39.64297971449994,10,11,14,10,230
44.15065706058322,10,11,14,12,234
53.915234738543425,10,11,14,13,238
95.95565602742728,10,11,14,14,242
58.812173117931366,10,11,14,15,246
55.40839703509907,10,11,14,16,250
54.285399160429684,10,11,15,1,2
53.4129819829026,10,11,15,2,6
53.654353456896935,10,11,15,3,10
52.55482341893639,10,11,15,4,14
47.243203075300336,10,11,15,5,18
46.85931067628631,10,11,15,6,22
46.01214431423663,10,11,15,7,26
45.31072736455376,10,11,15,8,30
44.18658489084866,10,11,15,9,34
39.87068788363126,10,11,15,10,38
43.39122450778467,10,11,15,12,42
51.16140884574776,10,11,15,13,46
58.614860036389175,10,11,15,14,50
100.51185871010397,10,11,15,15,54
62.89250804688613,10,11,15,16,58
58.54362866959715,10,11,16,1,66
56.64115562069877,10,11,16,2,70
56.60769048209453,10,11,16,3,74
55.37532137127221,10,11,16,4,78
48.0149699655334,10,11,16,5,82
47.654244133376324,10,11,16,6,86
46.51438584391293,10,11,16,7,90
45.816265713674376,10,11,16,8,94
44.39575638242905,10,11,16,9,98
40.267180327824626,10,11,16,10,102
42.98092891829525,10,11,16,12,106
50.183072008290466,10,11,16,13,110
55.77363348494892,10,11,16,14,114
63.4558438321607,10,11,16,15,118
105.71413946324842,10,11,16,16,122
40.59760270853539,10,12,13,1,130
40.96608646409764,10,12,13,2,134
40.87540111112734,10,12,13,3,138
40.22654999954709,10,12,13,4,142
39.0668840915629,10,12,13,5,146
39.60755614518171,10,12,13,6,150
38.760628399679874,10,12,13,7,154
39.15813500614551,10,12,13,8,158
38.10012345185355,10,12,13,9,162
38.033650685641476,10,12,13,10,166
35.31078448945937,10,12,13,11,170
80.09551384848415,10,12,13,13,174
45.15299422292931,10,12,13,14,178
42.53444941881055,10,12,13,15,182
41.93035288891155,10,12,13,16,186
46.29226154105447,10,12,14,1,194
46.47748047730141,10,12,14,2,198
46.316079227345384,10,12,14,3,202
45.53853682215322,10,12,14,4,206
43.02627959584404,10,12,14,5,210
43.42083353261018,10,12,14,6,214
42.457767856395215,10,12,14,7,218
42.68413303234494,10,12,14,8,222
41.35697011349755,10,12,14,9,226
40.896323843060394,10,12,14,10,230
37.473669711944176,10,12,14,11,234
45.18148723809963,10,12,14,13,238
89.3711020800176,10,12,14,14,242
52.569472162920434,10,12,14,15,246
49.716743508885116,10,12,14,16,250
50.386457129371074,10,12,15,1,2
50.23696158543853,10,12,15,2,6
49.93592346379564,10,12,15,3,10
49.006308135743865,10,12,15,4,14
44.93138767452744,10,12,15,5,18
45.180163140950754,10,12,15,6,22
44.137551347809605,10,12,15,7,26
44.1911392535757,10,12,15,8,30
42.69553241657612,10,12,15,9,34
42.00859315035813,10,12,15,10,38
38.198548963491696,10,12,15,11,42
43.25155619839656,10,12,15,13,46
52.89616954741932,10,12,15,14,50
95.40026911257907,10,12,15,15,54
58.03114385193208,10,12,15,16,58
55.07261417554266,10,12,16,1,66
53.92513625609244,10,12,16,2,70
53.356769636132256,10,12,16,3,74
52.310900172552905,10,12,16,4,78
46.12779554389229,10,12,16,5,82
46.27684379222677,10,12,16,6,86
45.08109044458755,10,12,16,7,90
45.04182099974916,10,12,16,8,94
43.427051555834865,10,12,16,9,98
42.554763507026394,10,12,16,10,102
38.531489458835466,10,12,16,11,106
42.64678324042624,10,12,16,13,110
50.45724865671479,10,12,16,14,114
58.455065652988345,10,12,16,15,118
101.4052833522059,10,12,16,16,122
41.40533574688227,10,13,14,1,130
41.15141164720367,10,13,14,2,134
41.73788331191957,10,13,14,3,138
40.942732039676244,10,13,14,4,142
39.61084975467542,10,13,14,5,146
40.0464881608647,10,13,14,6,150
39.356656835023095,10,13,14,7,154
39.74080596712149,10,13,14,8,158
39.25123330208078,10,13,14,9,162
39.092966765753935,10,13,14,10,166
38.35330863402863,10,13,14,11,170
36.16047096203586,10,13,14,12,174
80.51853313848402,10,13,14,14,178
45.89627757919235,10,13,14,15,182
43.4793456614196,10,13,14,16,186
47.40879774883809,10,13,15,1,194
47.067977552580444,10,13,15,2,198
47.26634401474112,10,13,15,3,202
46.2980115078424,10,13,15,4,206
43.441542408329965,10,13,15,5,210
43.74568063469871,10,13,15,6,214
42.95579905228733,10,13,15,7,218
43.190361885797046,10,13,15,8,222
42.61044185075078,10,13,15,9,226
42.13514918632944,10,13,15,10,230
41.05086883883137,10,13,15,11,234
38.154791343152716,10,13,15,12,238
45.95413737289852,10,13,15,14,242
90.51257039623756,10,13,15,15,246
53.66685378884679,10,13,15,16,250
52.63586397758388,10,13,16,1,2
51.41561850904724,10,13,16,2,6
51.21689184151338,10,13,16,3,10
50.174957400627584,10,13,16,4,14
45.22174217324596,10,13,16,5,18
45.37012443099524,10,13,16,6,22
44.427687289105805,10,13,16,7,26
44.61282542010787,10,13,16,8,30
43.768642418083424,10,13,16,9,34
43.27634633794114,10,13,16,10,38
41.90261806661239,10,13,16,11,42
38.82201700542837,10,13,16,12,46
44.049456220024794,10,13,16,14,50
54.23873552994888,10,13,16,15,54
97.59900994155083,10,13,16,16,58
41.15998841995767,10,14,15,1,66
41.17294054381864,10,14,15,2,70
41.27930864632078,10,14,15,3,74
40.52192741234009,10,14,15,4,78
38.978634069637145,10,14,15,5,82
39.429745798775606,10,14,15,6,86
38.713718692124054,10,14,15,7,90
39.241204669528635,10,14,15,8,94
38.39637942662253,10,14,15,9,98
38.84558420667892,10,14,15,10,102
38.2238466965691,10,14,15,11,106
37.70921470247477,10,14,15,12,110
35.808794030949024,10,14,15,13,114
80.36683893874662,10,14,15,15,118
45.34214670223068,10,14,15,16,122
48.34421473929821,10,14,16,1,130
47.3533733438138,10,14,16,2,134
47.10230399686376,10,14,16,3,138
46.225781136374785,10,14,16,4,142
42.59173852901089,10,14,16,5,146
42.950003113815505,10,14,16,6,150
42.062669148605764,10,14,16,7,154
42.47411693506789,10,14,16,8,158
41.49132733932595,10,14,16,9,162
41.77326425748275,10,14,16,10,166
40.91288709093187,10,14,16,11,170
40.19721499869579,10,14,16,12,174
37.62166949055382,10,14,16,13,178
45.78938182644718,10,14,16,15,182
91.13398075272634,10,14,16,16,186
42.11092735820311,10,15,16,1,194
40.958693737994174,10,15,16,2,198
41.36030484968474,10,15,16,3,202
40.6178870304348,10,15,16,4,206
38.46419885294746,10,15,16,5,210
38.423944930405014,10,15,16,6,214
38.18589365839137,10,15,16,7,218
38.39848556525621,10,15,16,8,222
38.58296103831056,10,15,16,9,226
38.134225363628524,10,15,16,10,230
38.29335595055624,10,15,16,11,234
37.27195762449564,10,15,16,12,238
37.2752046379101,10,15,16,13,242
35.02968463440066,10,15,16,14,246
80.49005969318507,10,15,16,16,250
130.42546815871202,10,1,2,2,254
98.44720293289839,10,1,2,3,2
95.63060625364585,10,1,2,4,6
91.93086900764273,10,1,2,5,10
92.17682826741476,10,1,2,6,14
91.58556526848086,10,1,2,7,18
91.87306132437847,10,1,2,8,22
91.31572130627542,10,1,2,9,26
91.63984511772335,10,1,2,10,30
91.08846649973268,10,1,2,11,34
91.4863245005496,10,1,2,12,38
91.16776713714876,10,1,2,13,42
91.02910655413407,10,1,2,14,46
90.21214492897376,10,1,2,15,50
89.27861062830098,10,1,2,16,54
98.49920292695798,10,1,3,2,62
148.40072871789894,10,1,3,3,66
111.98895777983657,10,1,3,4,70
101.30508497227348,10,1,3,5,74
101.31089421818767,10,1,3,6,78
100.4606204786417,10,1,3,7,82
100.69894784080714,10,1,3,8,86
99.9882009278576,10,1,3,9,90
100.29342711672264,10,1,3,10,94
99.63402687457965,10,1,3,11,98
99.93440885575845,10,1,3,12,102
99.5949585668619,10,1,3,13,106
99.32250373229583,10,1,3,14,110
98.44705738271766,10,1,3,15,114
97.26821043391125,10,1,3,16,118
95.6267424215965,10,1,4,2,126
112.08517357898253,10,1,4,3,130
178.12959862662112,10,1,4,4,134
107.26890915689098,10,1,4,5,138
105.8959190859593,10,1,4,6,142
104.7275023051485,10,1,4,7,146
104.67342684640977,10,1,4,8,150
103.9334672890862,10,1,4,9,154
104.00833291348422,10,1,4,10,158
103.36168089954296,10,1,4,11,162
103.52122238173219,10,1,4,12,166
102.97460943938493,10,1,4,13,170
102.68083813262153,10,1,4,14,174
101.62773011877204,10,1,4,15,178
100.65312712931443,10,1,4,16,182
91.90380163877016,10,1,5,2,190
101.15063084238656,10,1,5,3,194
107.02066734287402,10,1,5,4,198
201.72642632754886,10,1,5,5,202
157.64814241753885,10,1,5,6,206
150.80608802654024,10,1,5,7,210
148.16372703579177,10,1,5,8,214
145.86304771721197,10,1,5,9,218
144.28455202891894,10,1,5,10,222
142.64106618353892,10,1,5,11,226
141.41060851287767,10,1,5,12,230
139.85962687655584,10,1,5,13,234
138.18789384584855,10,1,5,14,238
135.83483576549355,10,1,5,15,242
132.43586865748063,10,1,5,16,246
91.79352357260382,10,1,6,2,254
100.86344801993282,10,1,6,3,2
105.34875054770528,10,1,6,4,6
157.24793288380314,10,1,6,5,10
199.28022172452503,10,1,6,6,14
156.6200556138091,10,1,6,7,18
152.29002599215903,10,1,6,8,22
149.5291284660799,10,1,6,9,26
147.54060461492094,10,1,6,10,30
145.7656938659316,10,1,6,11,34
144.2812124617957,10,1,6,12,38
142.60383895430343,10,1,6,13,42
140.7586382923539,10,1,6,14,46
138.39328071379742,10,1,6,15,50
134.77459962563776,10,1,6,16,54
91.81394241500652,10,1,7,2,62
100.6244545455037,10,1,7,3,66
104.76339396624644,10,1,7,4,70
151.1998428621897,10,1,7,5,74
157.3844218390798,10,1,7,6,78
199.0977119262023,10,1,7,7,82
157.6313811460666,10,1,7,8,86
152.82890109866196,10,1,7,9,90
150.12395477164705,10,1,7,10,94
148.02903966575198,10,1,7,11,98
146.314872657165,10,1,7,12,102
144.40624549818844,10,1,7,13,106
142.42741669397049,10,1,7,14,110
139.86752237671493,10,1,7,15,114
136.2783764497803,10,1,7,16,118
91.78590363413316,10,1,8,2,126
100.5991525073171,10,1,8,3,130
104.37553625861356,10,1,8,4,134
148.12728608817295,10,1,8,5,138
152.61744633129183,10,1,8,6,142
157.19206430973978,10,1,8,7,146
199.26071717802068,10,1,8,8,150
158.0466000093122,10,1,8,9,154
153.086191875813,10,1,8,10,158
150.21227079742638,10,1,8,11,162
148.01997443451873,10,1,8,12,166
145.89414607593193,10,1,8,13,170
143.7509321409094,10,1,8,14,174
141.02865257667486,10,1,8,15,178
137.19851473887877,10,1,8,16,182
91.85979116906013,10,1,9,2,190
100.57945347728044,10,1,9,3,194
104.17267203969818,10,1,9,4,198
145.9708786774871,10,1,9,5,202
149.89847988991616,10,1,9,6,206
152.47068828791856,10,1,9,7,210
158.22548387809024,10,1,9,8,214
197.06275071843473,10,1,9,9,218
157.73133630179572,10,1,9,10,222
152.86682076664508,10,1,9,11,226
149.9661060426251,10,1,9,12,230
147.49361904423407,10,1,9,13,234
145.0837257990145,10,1,9,14,238
142.20098808933534,10,1,9,15,242
138.2291029380603,10,1,9,16,246
91.77665334242573,10,1,10,2,254
100.39734158448005,10,1,10,3,2
103.92087738006568,10,1,10,4,6
144.27173713607615,10,1,10,5,10
147.8767064619366,10,1,10,6,14
149.72057173406031,10,1,10,7,18
153.19996610197907,10,1,10,8,22
157.54185500876213,10,1,10,9,26
197.801613011911,10,1,10,10,30
157.63546205372472,10,1,10,11,34
152.43860156512324,10,1,10,12,38
149.174219593924,10,1,10,13,42
146.31360228884554,10,1,10,14,46
143.22249297690985,10,1,10,15,50
139.0566860481993,10,1,10,16,54
91.47685379098468,10,1,11,2,62
100.04498933723852,10,1,11,3,66
103.48658680714902,10,1,11,4,70
142.730793570774,10,1,11,5,74
146.18459282918906,10,1,11,6,78
147.70391042784934,10,1,11,7,82
150.42716177608395,10,1,11,8,86
152.83653454528545,10,1,11,9,90
157.7519154358623,10,1,11,10,94
198.06745643679304,10,1,11,11,98
156.64548421890996,10,1,11,12,102
151.32655929478486,10,1,11,13,106
147.7801038023145,10,1,11,14,110
144.27858486958408,10,1,11,15,114
139.9206271569174,10,1,11,16,118
91.43815863695347,10,1,12,2,126
99.93021290703714,10,1,12,3,130
103.25054479443885,10,1,12,4,134
141.0581210078578,10,1,12,5,138
144.31726776659917,10,1,12,6,142
145.54849707843582,10,1,12,7,146
147.83489856937348,10,1,12,8,150
149.4595400943313,10,1,12,9,154
152.16147177335196,10,1,12,10,158
156.31907603131322,10,1,12,11,162
195.45632211304792,10,1,12,12,166
155.3034951046784,10,1,12,13,170
149.66652547469891,10,1,12,14,174
145.5587666169245,10,1,12,15,178
140.9362323794685,10,1,12,16,182
91.21672086347667,10,1,13,2,190
99.63419919461155,10,1,13,3,194
102.92339277160445,10,1,13,4,198
139.68204596405218,10,1,13,5,202
142.8607358026964,10,1,13,6,206
143.87787274294703,10,1,13,7,210
145.90738802849523,10,1,13,8,214
147.16435424229408,10,1,13,9,218
149.09241686994264,10,1,13,10,222
151.1302887341012,10,1,13,11,226
155.49014841914075,10,1,13,12,230
194.4693831721434,10,1,13,13,234
153.70331101832366,10,1,13,14,238
147.56738968734442,10,1,13,15,242
142.3279759013934,10,1,13,16,246
91.29232341504623,10,1,14,2,254
99.59511535275612,10,1,14,3,2
102.68571125676893,10,1,14,4,6
137.98200743217836,10,1,14,5,10
141.02899765704194,10,1,14,6,14
141.99026677888182,10,1,14,7,18
143.8764247161875,10,1,14,8,22
144.86593748255504,10,1,14,9,26
146.3847190372089,10,1,14,10,30
147.75025971908752,10,1,14,11,34
149.9547854990269,10,1,14,12,38
153.87992078876746,10,1,14,13,42
192.36134333299947,10,1,14,14,46
151.73030421985396,10,1,14,15,50
144.50209043645958,10,1,14,16,54
90.73870568285133,10,1,15,2,62
98.88389085706474,10,1,15,3,66
101.88414054077285,10,1,15,4,70
135.88212631266276,10,1,15,5,74
138.80397425486717,10,1,15,6,78
139.63403271819678,10,1,15,7,82
141.3958138007636,10,1,15,8,86
142.1996822713882,10,1,15,9,90
143.45099461904786,10,1,15,10,94
144.4567667601485,10,1,15,11,98
145.9957251561246,10,1,15,12,102
147.9423632326737,10,1,15,13,106
151.894415116076,10,1,15,14,110
190.27625675836717,10,1,15,15,114
148.8262638873349,10,1,15,16,118
89.85755779509289,10,1,16,2,126
97.73517225905923,10,1,16,3,130
100.7877317728836,10,1,16,4,134
132.40795785907562,10,1,16,5,138
135.14400917271792,10,1,16,6,142
135.8000498798542,10,1,16,7,146
137.3345493009406,10,1,16,8,150
138.0317902833773,10,1,16,9,154
139.13093898861254,10,1,16,10,158
139.87254611975902,10,1,16,11,162
141.05196334124122,10,1,16,12,166
142.38326969525616,10,1,16,13,170
144.48410056677676,10,1,16,14,174
148.62079994004824,10,1,16,15,178
187.27004764522522,10,1,16,16,182
30.136780679831148,10,2,3,1,190
80.67961821411525,10,2,3,3,194
46.857711887236235,10,2,3,4,198
39.79121701177622,10,2,3,5,202
40.03486980184963,10,2,3,6,206
39.318324758195864,10,2,3,7,210
39.714976854091184,10,2,3,8,214
39.10711327363547,10,2,3,9,218
39.4482178136122,10,2,3,10,222
38.9219852510802,10,2,3,11,226
39.408714336362785,10,2,3,12,230
38.80016201368638,10,2,3,13,234
39.091427996167745,10,2,3,14,238
38.562713632031226,10,2,3,15,242
38.297830579456786,10,2,3,16,246
32.55946345053977,10,2,4,1,254
46.73035003885739,10,2,4,3,2
115.73303638345226,10,2,4,4,6
48.33797771123396,10,2,4,5,10
47.23160940689951,10,2,4,6,14
46.148276312174325,10,2,4,7,18
46.17193955303932,10,2,4,8,22
45.53767388545031,10,2,4,9,26
45.548058394832054,10,2,4,10,30
45.18051582730633,10,2,4,11,34
45.44520597784564,10,2,4,12,38
44.83296698137991,10,2,4,13,42
44.75638046415201,10,2,4,14,46
44.38430260997117,10,2,4,15,50
44.0396620462689,10,2,4,16,54
36.51654310511223,10,2,5,1,62
39.75943149771153,10,2,5,3,66
48.37598647106357,10,2,5,4,70
146.70612098964762,10,2,5,5,74
102.93420126581026,10,2,5,6,78
96.23791056975281,10,2,5,7,82
93.74149031815438,10,2,5,8,86
91.3866252792826,10,2,5,9,90
90.0168287272778,10,2,5,10,94
88.46131949257227,10,2,5,11,98
87.38317723410002,10,2,5,12,102
85.97343916666233,10,2,5,13,106
84.48362182980543,10,2,5,14,110
82.3962180191734,10,2,5,15,114
79.69311358958998,10,2,5,16,118
36.66673025699334,10,2,6,1,126
39.482534987107755,10,2,6,3,130
46.83456167472148,10,2,6,4,134
102.61632097752313,10,2,6,5,138
144.706412443548,10,2,6,6,142
102.24502534664033,10,2,6,7,146
97.99997478087074,10,2,6,8,150
95.18286793969072,10,2,6,9,154
93.35842866861822,10,2,6,10,158
91.55187752299678,10,2,6,11,162
90.20062462671574,10,2,6,12,166
88.61680774753735,10,2,6,13,170
86.96170340931417,10,2,6,14,174
84.78778330636868,10,2,6,15,178
81.77600135877161,10,2,6,16,182
36.64986907004997,10,2,7,1,190
39.30582345165976,10,2,7,3,194
46.20811733361062,10,2,7,4,198
96.06393477182415,10,2,7,5,202
102.43096504262606,10,2,7,6,206
144.00936932394453,10,2,7,7,210
102.82368053676221,10,2,7,8,214
97.92468088254763,10,2,7,9,218
95.45019398483339,10,2,7,10,222
93.29791277320953,10,2,7,11,226
91.73438404421744,10,2,7,12,230
89.97164525945333,10,2,7,13,234
88.18217605078272,10,2,7,14,238
85.88241575172212,10,2,7,15,242
82.82662548950313,10,2,7,16,246
36.6630541466388,10,2,8,1,254
39.22687188756891,10,2,8,3,2
45.81962760997914,10,2,8,4,6
92.56781536097333,10,2,8,5,10
97.24545669509409,10,2,8,6,14
101.98158263542103,10,2,8,7,18
144.33939260239706,10,2,8,8,22
103.19222697712286,10,2,8,9,26
98.38888547312553,10,2,8,10,30
95.671128518996,10,2,8,11,34
93.74781100146426,10,2,8,12,38
91.80853201240564,10,2,8,13,42
89.88460693471777,10,2,8,14,46
87.50630780612886,10,2,8,15,50
84.31608762983352,10,2,8,16,54
36.79055218984329,10,2,9,1,62
39.08818289634571,10,2,9,3,66
45.58773514008228,10,2,9,4,70
90.96623913681566,10,2,9,5,74
95.14470966661099,10,2,9,6,78
97.76006405354178,10,2,9,7,82
103.63254160425737,10,2,9,8,86
142.57868227557316,10,2,9,9,90
103.18297735803021,10,2,9,10,94
98.40348032651704,10,2,9,11,98
95.64460971068333,10,2,9,12,102
93.2825064291439,10,2,9,13,106
91.0904639244936,10,2,9,14,110
88.53239121948661,10,2,9,15,114
85.25022765718877,10,2,9,16,118
36.87420654272439,10,2,10,1,126
38.9983125875363,10,2,10,3,130
45.37803287432059,10,2,10,4,134
89.31580418465093,10,2,10,5,138
93.17005697302177,10,2,10,6,142
95.14006688178063,10,2,10,7,146
98.7411509222533,10,2,10,8,150
103.1770117771334,10,2,10,9,154
143.59297477939282,10,2,10,10,158
103.41613622827298,10,2,10,11,162
98.32972832434096,10,2,10,12,166
95.17819175390709,10,2,10,13,170
92.54557870174095,10,2,10,14,174
89.76731839640998,10,2,10,15,178
86.23167897753288,10,2,10,16,182
37.0077808877827,10,2,11,1,190
39.00084309654796,10,2,11,3,194
45.208183223007886,10,2,11,4,198
87.88505190626039,10,2,11,5,202
91.54952579958216,10,2,11,6,206
93.17960918184167,10,2,11,7,210
96.07470345733059,10,2,11,8,214
98.59737696773173,10,2,11,9,218
103.64187356852914,10,2,11,10,222
144.08897497129365,10,2,11,11,226
102.85708533772468,10,2,11,12,230
97.71335074111614,10,2,11,13,234
94.38243463531046,10,2,11,14,238
91.26250275845474,10,2,11,15,242
87.50810517999332,10,2,11,16,246
37.212354487499745,10,2,12,1,254
38.939304402224685,10,2,12,3,2
45.06861107806872,10,2,12,4,6
86.71046132613776,10,2,12,5,10
90.23856052957183,10,2,12,6,14
91.57789981173298,10,2,12,7,18
93.99534214781804,10,2,12,8,22
95.63809907822363,10,2,12,9,26
98.45624317675606,10,2,12,10,30
102.6915155028682,10,2,12,11,34
141.83416232807193,10,2,12,12,38
101.94514540903867,10,2,12,13,42
96.46927071022581,10,2,12,14,46
92.65972765145771,10,2,12,15,50
88.63123698979071,10,2,12,16,54
37.30547768840131,10,2,13,1,62
38.819853977505545,10,2,13,3,66
44.87670331507326,10,2,13,4,70
85.221429945722,10,2,13,5,74
88.60923389589877,10,2,13,6,78
89.78139256907188,10,2,13,7,82
91.96714147397536,10,2,13,8,86
93.26372026011124,10,2,13,9,90
95.33091134978893,10,2,13,10,94
97.51793114802055,10,2,13,11,98
101.93853228245689,10,2,13,12,102
141.13989359544246,10,2,13,13,106
100.48959447009783,10,2,13,14,110
94.73393403687366,10,2,13,15,114
90.02173879102249,10,2,13,16,118
37.47328143675698,10,2,14,1,126
38.681938531720284,10,2,14,3,130
44.605137752892546,10,2,14,4,134
83.58325758024036,10,2,14,5,138
86.836045223648,10,2,14,6,142
87.83499018714475,10,2,14,7,146
89.8549894101493,10,2,14,8,150
90.83953555133493,10,2,14,9,154
92.47389257708106,10,2,14,10,158
93.85709968306229,10,2,14,11,162
96.22313064906987,10,2,14,12,166
100.29097559103194,10,2,14,13,170
139.0962752430117,10,2,14,14,174
98.70936779906616,10,2,14,15,178
92.14300135775643,10,2,14,16,182
37.86633135128169,10,2,15,1,190
38.583178076023025,10,2,15,3,194
44.349834169928094,10,2,15,4,198
81.8748817645088,10,2,15,5,202
85.03615738368356,10,2,15,6,206
85.97657871343313,10,2,15,7,210
87.92042156387122,10,2,15,8,214
88.71920288752419,10,2,15,9,218
90.24079048143884,10,2,15,10,222
91.31065418841727,10,2,15,11,226
93.02659276241263,10,2,15,12,230
95.04498173293598,10,2,15,13,234
99.28532946114973,10,2,15,14,238
138.22566091935172,10,2,15,15,242
97.17458405573566,10,2,15,16,246
39.08438139003902,10,2,16,1,254
38.356584985740255,10,2,16,3,2
44.082548553137485,10,2,16,4,6
79.80207977015161,10,2,16,5,10
82.82513360662954,10,2,16,6,14
83.65246445264432,10,2,16,7,18
85.45785070122443,10,2,16,8,22
86.04365335845047,10,2,16,9,26
87.5033938455649,10,2,16,10,30
88.3334156540045,10,2,16,11,34
89.80059097496074,10,2,16,12,38
91.27061877155376,10,2,16,13,42
93.62535906320984,10,2,16,14,46
98.17157727977892,10,2,16,15,50
137.75753476192426,10,2,16,16,54
34.42341272435872,10,3,4,1,62
31.855906389566456,10,3,4,2,66
100.96153176008463,10,3,4,4,70
40.5248820130193,10,3,4,5,74
39.78365911883822,10,3,4,6,78
38.857488586299944,10,3,4,7,82
39.1926061820551,10,3,4,8,86
38.421577317356366,10,3,4,9,90
38.98070366867381,10,3,4,10,94
38.595034351348176,10,3,4,11,98
38.701950279088344,10,3,4,12,102
38.66251468303006,10,3,4,13,106
38.544238596011716,10,3,4,14,110
38.17321996928289,10,3,4,15,114
37.6406346521681,10,3,4,16,118
45.31683357587083,10,3,5,1,126
38.91145693178346,10,3,5,2,130
40.45279024459085,10,3,5,4,134
146.5893455611753,10,3,5,5,138
103.14798157065823,10,3,5,6,142
96.55931091737935,10,3,5,7,146
94.25156654716503,10,3,5,8,150
92.23604385343803,10,3,5,9,154
90.65173234145692,10,3,5,10,158
89.29078184966531,10,3,5,11,162
88.07281211424123,10,3,5,12,166
86.75454880511771,10,3,5,13,170
85.25936574026126,10,3,5,14,174
83.51080800145522,10,3,5,15,178
80.63792550843246,10,3,5,16,182
45.78712427911044,10,3,6,1,190
39.30014123031969,10,3,6,2,194
39.22073564814041,10,3,6,4,198
102.3610330936536,10,3,6,5,202
144.9108709896822,10,3,6,6,206
102.49396299054628,10,3,6,7,210
98.42268829967786,10,3,6,8,214
95.88096089444363,10,3,6,9,218
94.0073502064648,10,3,6,10,222
92.46504367110445,10,3,6,11,226
90.97406356189207,10,3,6,12,230
89.61343969077109,10,3,6,13,234
87.99127248459781,10,3,6,14,238
86.14883583224078,10,3,6,15,242
83.0999664569892,10,3,6,16,246
45.98650558581474,10,3,7,1,254
39.41789137034905,10,3,7,2,2
38.72804030892589,10,3,7,4,6
96.18661098807779,10,3,7,5,10
102.84071936528494,10,3,7,6,14
144.6158153079669,10,3,7,7,18
103.59393803935058,10,3,7,8,22
98.9926988838899,10,3,7,9,26
96.4638900900284,10,3,7,10,30
94.52284081901995,10,3,7,11,34
92.86056706203323,10,3,7,12,38
91.2912585431424,10,3,7,13,42
89.56895403175481,10,3,7,14,46
87.63505986226136,10,3,7,15,50
84.60466778654555,10,3,7,16,54
46.22405794764007,10,3,8,1,62
39.5117969899999,10,3,8,2,66
38.478537718298604,10,3,8,4,70
93.30676441147419,10,3,8,5,74
98.34090145494031,10,3,8,6,78
103.19684432093078,10,3,8,7,82
145.69356276951743,10,3,8,8,86
104.7246560820388,10,3,8,9,90
99.83679195304026,10,3,8,10,94
97.15738594065787,10,3,8,11,98
95.06241391879978,10,3,8,12,102
93.16643338338369,10,3,8,13,106
91.2323976880993,10,3,8,14,110
89.08435644982913,10,3,8,15,114
85.86814089056007,10,3,8,16,118
46.33351922662112,10,3,9,1,126
39.58540300081732,10,3,9,2,130
38.283924033904164,10,3,9,4,134
91.18182937323736,10,3,9,5,138
95.60768283194163,10,3,9,6,142
98.48166498770973,10,3,9,7,146
104.5071857691071,10,3,9,8,150
143.65497165955816,10,3,9,9,154
104.35654655265803,10,3,9,10,158
99.7962745886486,10,3,9,11,162
96.94925719134348,10,3,9,12,166
94.7573614208412,10,3,9,13,170
92.61667795540498,10,3,9,14,174
90.34314549087223,10,3,9,15,178
86.99877571690574,10,3,9,16,182
46.515244342828744,10,3,10,1,190
39.644724345808214,10,3,10,2,194
38.20771530460025,10,3,10,4,198
89.61149302170239,10,3,10,5,202
93.77208427536837,10,3,10,6,206
95.88072113628762,10,3,10,7,210
99.5962530269985,10,3,10,8,214
104.27721237668305,10,3,10,9,218
144.60519708018808,10,3,10,10,222
104.62313386736655,10,3,10,11,226
99.50335902317083,10,3,10,12,230
96.55852587392124,10,3,10,13,234
93.98501938568023,10,3,10,14,238
91.43239609614189,10,3,10,15,242
87.95066919017307,10,3,10,16,246
46.649000388025314,10,3,11,1,254
39.72674738871905,10,3,11,2,2
38.07727191801148,10,3,11,4,6
88.08076670052245,10,3,11,5,10
92.04351044564736,10,3,11,6,14
93.81957171541089,10,3,11,7,18
96.75858931599734,10,3,11,8,22
99.46333294399419,10,3,11,9,26
104.46974856029203,10,3,11,10,30
144.98889655424594,10,3,11,11,34
103.75227273566765,10,3,11,12,38
98.76511631390605,10,3,11,13,42
95.46928974820081,10,3,11,14,46
92.58179213995102,10,3,11,15,50
88.92690453665442,10,3,11,16,54
46.81177203400719,10,3,12,1,62
39.808918210081885,10,3,12,2,66
37.97843196729662,10,3,12,4,70
86.83467148186521,10,3,12,5,74
90.64894572369127,10,3,12,6,78
92.18365746151443,10,3,12,7,82
94.81640667255449,10,3,12,8,86
96.7634839008094,10,3,12,9,90
99.49044713187476,10,3,12,10,94
103.90501634166043,10,3,12,11,98
143.04338963579687,10,3,12,12,102
103.30004123674573,10,3,12,13,106
97.87016788392042,10,3,12,14,110
94.30576438147597,10,3,12,15,114
90.36294432574348,10,3,12,16,118
47.07758252975105,10,3,13,1,126
39.903988297913244,10,3,13,2,130
37.88521047568997,10,3,13,4,134
85.72991648307988,10,3,13,5,138
89.42417094124269,10,3,13,6,142
90.77292204080427,10,3,13,7,146
93.11269774745158,10,3,13,8,150
94.70894570359988,10,3,13,9,154
96.68972791884599,10,3,13,10,158
99.01637127353897,10,3,13,11,162
103.43112135966948,10,3,13,12,166
142.73248567174497,10,3,13,13,170
102.20771991372497,10,3,13,14,174
96.6768727796649,10,3,13,15,178
92.05912008123924,10,3,13,16,182
47.456576372197716,10,3,14,1,190
40.01606529988827,10,3,14,2,194
37.79849349836285,10,3,14,4,198
84.45577762335336,10,3,14,5,202
88.02242945556004,10,3,14,6,206
89.2322101127653,10,3,14,7,210
91.4258995564479,10,3,14,8,214
92.72300671004601,10,3,14,9,218
94.26473746415634,10,3,14,10,222
95.85268853476566,10,3,14,11,226
98.11977642936702,10,3,14,12,230
102.28068643906602,10,3,14,13,234
141.04350977573554,10,3,14,14,238
100.94085374844248,10,3,14,15,242
94.41510816971858,10,3,14,16,246
47.89107305984601,10,3,15,1,254
40.10662955127825,10,3,15,2,2
37.66495037576018,10,3,15,4,6
82.55616476488368,10,3,15,5,10
85.97633796687461,10,3,15,6,14
87.07473323345488,10,3,15,7,18
89.04653474550287,10,3,15,8,22
90.21654717656384,10,3,15,9,26
91.53400134052976,10,3,15,10,30
92.77426127677982,10,3,15,11,34
94.3769496275573,10,3,15,12,38
96.57006317620832,10,3,15,13,42
100.86349208419881,10,3,15,14,46
139.9529246120634,10,3,15,15,50
99.08507191445287,10,3,15,16,54
49.19519145566592,10,3,16,1,62
40.31822697203167,10,3,16,2,66
37.48998161634397,10,3,16,4,70
80.36331962948094,10,3,16,5,74
83.61201810807155,10,3,16,6,78
84.57024328057436,10,3,16,7,82
86.46788063677604,10,3,16,8,86
87.51062655142755,10,3,16,9,90
88.64215747551201,10,3,16,10,94
89.69955794086995,10,3,16,11,98
91.00088491559637,10,3,16,12,102
92.5824784961407,10,3,16,13,106
94.94844407488051,10,3,16,14,110
99.65661275557181,10,3,16,15,114
139.040725019073,10,3,16,16,118
70.0281686732656,10,4,5,1,126
66.198549969764,10,4,5,2,130
59.21190466747441,10,4,5,3,134
165.22768996296682,10,4,5,5,138
122.24286400786083,10,4,5,6,142
116.62117265881503,10,4,5,7,146
113.98158606735201,10,4,5,8,150
112.1033685693932,10,4,5,9,154
110.65341706715937,10,4,5,10,158
109.4208348058266,10,4,5,11,162
108.28240692425237,10,4,5,12,166
107.08356212706543,10,4,5,13,170
105.72493178725628,10,4,5,14,174
104.17979585138448,10,4,5,15,178
102.1152555008344,10,4,5,16,182
71.79481454780989,10,4,6,1,190
67.78395370075141,10,4,6,2,194
60.410440521650855,10,4,6,3,198
122.3250398556993,10,4,6,5,202
165.53733402681016,10,4,6,6,206
124.21456299133885,10,4,6,7,210
119.87371846714706,10,4,6,8,214
117.47010575282847,10,4,6,9,218
115.7040461692238,10,4,6,10,222
114.30529622735072,10,4,6,11,226
112.9465499239502,10,4,6,12,230
111.58176617620106,10,4,6,13,234
110.13587989209358,10,4,6,14,238
108.36422923343062,10,4,6,15,242
106.11305744685987,10,4,6,16,246
72.47822809201354,10,4,7,1,254
68.32316663646141,10,4,7,2,2
60.843335939559964,10,4,7,3,6
116.75424853839387,10,4,7,5,10
124.1587646922791,10,4,7,6,14
166.94165925012825,10,4,7,7,18
125.56293421014794,10,4,7,8,22
121.17406919697483,10,4,7,9,26
118.71465549186607,10,4,7,10,30
116.86279757693876,10,4,7,11,34
115.33065399898734,10,4,7,12,38
113.82522897186207,10,4,7,13,42
112.20186646172425,10,4,7,14,46
110.36140109376821,10,4,7,15,50
107.97673829091868,10,4,7,16,54
72.89907792041271,10,4,8,1,62
68.68992596620902,10,4,8,2,66
61.07402026222788,10,4,8,3,70
113.81396718886927,10,4,8,5,74
119.54074542978427,10,4,8,6,78
125.25959754112003,10,4,8,7,82
167.41071795042387,10,4,8,8,86
126.52457735173444,10,4,8,9,90
121.7870053691539,10,4,8,10,94
119.19094117074937,10,4,8,11,98
117.27009091415479,10,4,8,12,102
115.45811141670472,10,4,8,13,106
113.70529846863258,10,4,8,14,110
111.72224801509827,10,4,8,15,114
109.2956222948339,10,4,8,16,118
73.22945544767045,10,4,9,1,126
68.93219760962576,10,4,9,2,130
61.234946562547016,10,4,9,3,134
111.99881555895887,10,4,9,5,138
117.19397690763644,10,4,9,6,142
120.96402005371266,10,4,9,7,146
126.67910160429358,10,4,9,8,150
165.8539695760817,10,4,9,9,154
126.67910160429358,10,4,9,10,158
122.14966380659256,10,4,9,11,162
119.42987166975928,10,4,9,12,166
117.27187402536426,10,4,9,13,170
115.20166694774018,10,4,9,14,174
113.05117032416469,10,4,9,15,178
110.46693003014579,10,4,9,16,182
73.5464619200923,10,4,10,1,190
69.20308721069236,10,4,10,2,194
61.42595775500073,10,4,10,3,198
110.25677620756112,10,4,10,5,202
115.10215146108973,10,4,10,6,206
118.17408143863348,10,4,10,7,210
121.55794838440602,10,4,10,8,214
126.33593887118987,10,4,10,9,218
166.78439115073866,10,4,10,10,222
126.94887343559991,10,4,10,11,226
121.99232113389925,10,4,10,12,230
119.0989722015267,10,4,10,13,234
116.67633215399965,10,4,10,14,238
114.2974236963977,10,4,10,15,242
111.61569369000811,10,4,10,16,246
73.82248097254278,10,4,11,1,254
69.29406256019408,10,4,11,2,2
61.514386333087295,10,4,11,3,6
109.13663290227336,10,4,11,5,10
113.85534716530191,10,4,11,6,14
116.56033615131442,10,4,11,7,18
119.25192825429124,10,4,11,8,22
122.05036802913227,10,4,11,9,26
127.23411901335756,10,4,11,10,30
167.8322218076735,10,4,11,11,34
126.75433488022429,10,4,11,12,38
121.77596427088162,10,4,11,13,42
118.62362111280008,10,4,11,14,46
115.88658902891372,10,4,11,15,50
112.95528691414167,10,4,11,16,54
74.11293495132954,10,4,12,1,62
69.50472692099332,10,4,12,2,66
61.584647129448,10,4,12,3,70
108.06106062204492,10,4,12,5,74
112.5922234423432,10,4,12,6,78
115.03597272257312,10,4,12,7,82
117.26810290743076,10,4,12,8,86
119.34653821035211,10,4,12,9,90
122.15760749788555,10,4,12,10,94
126.59414787106715,10,4,12,11,98
165.9076872573753,10,4,12,12,102
126.19674558204042,10,4,12,13,106
120.87867784118995,10,4,12,14,110
117.40155834259443,10,4,12,15,114
114.19474129342372,10,4,12,16,118
74.46019691487433,10,4,13,1,126
69.7174321940994,10,4,13,2,130
61.717832156435215,10,4,13,3,134
106.78919995471749,10,4,13,5,138
111.19346788579095,10,4,13,6,142
113.47144933807755,10,4,13,7,146
115.494300111949,10,4,13,8,150
117.20922068391685,10,4,13,9,154
119.30654076814324,10,4,13,10,158
121.72372114125415,10,4,13,11,162
126.24768305810629,10,4,13,12,166
165.66548974121633,10,4,13,13,170
125.18419975518482,10,4,13,14,174
119.71976655392267,10,4,13,15,178
115.8694636461579,10,4,13,16,182
74.8487392710513,10,4,14,1,190
69.89522241310709,10,4,14,2,194
61.84187843990963,10,4,14,3,198
105.2785288935681,10,4,14,5,202
109.51214164445734,10,4,14,6,206
111.60524209177787,10,4,14,7,210
113.36346530974713,10,4,14,8,214
114.81534461519585,10,4,14,9,218
116.44041233476389,10,4,14,10,222
118.10339706539959,10,4,14,11,226
120.54872849271912,10,4,14,12,230
124.77706699886751,10,4,14,13,234
163.75178768010332,10,4,14,14,238
123.7405708697284,10,4,14,15,242
118.09226151756518,10,4,14,16,246
75.45968058323457,10,4,15,1,254
70.18617243992787,10,4,15,2,2
61.97394620451091,10,4,15,3,6
103.68498502211503,10,4,15,5,10
107.82690948877726,10,4,15,6,14
109.87791118854672,10,4,15,7,18
111.56330337183886,10,4,15,8,22
112.82868177979002,10,4,15,9,26
114.27310524990074,10,4,15,10,30
115.59373915707856,10,4,15,11,34
117.30984709332772,10,4,15,12,38
119.5875153089422,10,4,15,13,42
123.96475059446661,10,4,15,14,46
163.13672435134828,10,4,15,15,50
123.07756559334352,10,4,15,16,54
76.89203055527388,10,4,16,1,62
70.53205162780723,10,4,16,2,66
62.067436357101165,10,4,16,3,70
101.75876736468781,10,4,16,5,74
105.76950262203587,10,4,16,6,78
107.70773007371196,10,4,16,7,82
109.32565385717629,10,4,16,8,86
110.49775134719297,10,4,16,9,90
111.7764232997646,10,4,16,10,94
113.01119549280314,10,4,16,11,98
114.45573094576497,10,4,16,12,102
116.12078730268337,10,4,16,13,106
118.6650377750374,10,4,16,14,110
123.45535073838643,10,4,16,15,114
163.56562534974626,10,4,16,16,118
43.18920581221788,10,5,6,1,126
42.93476587467494,10,5,6,2,130
42.68391932450296,10,5,6,3,134
41.37597376001357,10,5,6,4,138
84.47211317792016,10,5,6,6,142
49.22667355205955,10,5,6,7,146
47.003444871056004,10,5,6,8,150
46.58144975466381,10,5,6,9,154
46.23710323930036,10,5,6,10,158
46.068317124899295,10,5,6,11,162
45.82739634487232,10,5,6,12,166
45.801864538023345,10,5,6,13,170
45.61680728627315,10,5,6,14,174
45.5397104341646,10,5,6,15,178
45.31289740315364,10,5,6,16,182
49.392453107522286,10,5,7,1,190
49.05838801785117,10,5,7,2,194
48.675623029665395,10,5,7,3,198
46.932346819305764,10,5,7,4,202
48.70608763955108,10,5,7,6,206
97.66366106232005,10,5,7,7,210
58.445812792127974,10,5,7,8,214
55.967230217726254,10,5,7,9,218
54.882081112116595,10,5,7,10,222
54.40567662948986,10,5,7,11,226
53.96901648989998,10,5,7,12,230
53.716572773094,10,5,7,13,234
53.39911043360088,10,5,7,14,238
53.20393150266605,10,5,7,15,242
52.88394464872779,10,5,7,16,246
52.62954450361878,10,5,8,1,254
52.14950290908146,10,5,8,2,2
51.68520946990694,10,5,8,3,6
49.71584307758592,10,5,8,4,10
47.03830236233356,10,5,8,6,14
58.99005813280046,10,5,8,7,18
103.32049437319718,10,5,8,8,22
64.33213587131026,10,5,8,9,26
61.02136328433503,10,5,8,10,30
59.76216528695275,10,5,8,11,34
58.92700196240521,10,5,8,12,38
58.37171087905966,10,5,8,13,42
57.93476055832086,10,5,8,14,46
57.590422133637006,10,5,8,15,50
57.15347874612593,10,5,8,16,54
54.76728386430704,10,5,9,1,62
54.20868501420067,10,5,9,2,66
53.652486404281625,10,5,9,3,70
51.50651342615602,10,5,9,4,74
46.515572689358386,10,5,9,6,78
56.43337100526356,10,5,9,7,82
64.24788769134355,10,5,9,8,86
105.36657207704464,10,5,9,9,90
67.6690322718316,10,5,9,10,94
64.4330198362541,10,5,9,11,98
62.8559564961942,10,5,9,12,102
61.94715329597132,10,5,9,13,106
61.25424957803376,10,5,9,14,110
60.736529241571695,10,5,9,15,114
60.17099453113772,10,5,9,16,118
56.57990493436593,10,5,10,1,126
55.93101173202761,10,5,10,2,130
55.29395363047827,10,5,10,3,134
53.05511502655643,10,5,10,4,138
46.23276083538872,10,5,10,6,142
55.4142455620377,10,5,10,7,146
60.966396390608175,10,5,10,8,150
67.7235126438417,10,5,10,9,154
109.51746915660016,10,5,10,10,158
71.00949097950888,10,5,10,11,162
67.1721457734199,10,5,10,12,166
65.4714579311774,10,5,10,13,170
64.34377028660556,10,5,10,14,174
63.5618998351597,10,5,10,15,178
62.86082691168367,10,5,10,16,182
58.12332043281692,10,5,11,1,190
57.31137051772893,10,5,11,2,194
56.625818877508436,10,5,11,3,198
54.2545904919386,10,5,11,4,202
46.03732168360482,10,5,11,6,206
54.880000869242906,10,5,11,7,210
59.67499643516863,10,5,11,8,214
64.43367488337053,10,5,11,9,218
70.99506291049278,10,5,11,10,222
112.82981771604246,10,5,11,11,226
72.86453351242501,10,5,11,12,230
69.11282227046402,10,5,11,13,234
67.29622119573398,10,5,11,14,238
66.15636116680206,10,5,11,15,242
65.24588932954809,10,5,11,16,246
59.571751986675814,10,5,12,1,254
58.66973397163005,10,5,12,2,2
57.88767947267013,10,5,12,3,6
55.440319115402154,10,5,12,4,10
45.868022938440504,10,5,12,6,14
54.48145576457851,10,5,12,7,18
58.856855815623824,10,5,12,8,22
62.873389112155145,10,5,12,9,26
67.1551724791517,10,5,12,10,30
72.86924734490736,10,5,12,11,34
113.34969756552232,10,5,12,12,38
74.84073223434112,10,5,12,13,42
70.86713566572159,10,5,12,14,46
69.04319053304008,10,5,12,15,50
67.81897885698626,10,5,12,16,54
61.122103227751225,10,5,13,1,62
60.07533579567447,10,5,13,2,66
59.17463580217966,10,5,13,3,70
56.64513950500114,10,5,13,4,74
45.748140080393476,10,5,13,6,78
54.13607720340734,10,5,13,7,82
58.298229761576316,10,5,13,8,86
61.93483561184527,10,5,13,9,90
65.477405996658,10,5,13,10,94
69.13518345505274,10,5,13,11,98
74.80741355282758,10,5,13,12,102
115.39450009752937,10,5,13,13,106
76.30534762652692,10,5,13,14,110
72.46459722072706,10,5,13,15,114
70.67435030702924,10,5,13,16,118
62.88536335646761,10,5,14,1,126
61.62615999891096,10,5,14,2,130
60.67021920686865,10,5,14,3,134
57.95304826881255,10,5,14,4,138
45.6222847562302,10,5,14,6,142
53.891131439434325,10,5,14,7,146
57.83041660749359,10,5,14,8,150
61.20239659790104,10,5,14,9,154
64.3413065764766,10,5,14,10,158
67.31065438061431,10,5,14,11,162
70.799918146605,10,5,14,12,166
76.31657038081705,10,5,14,13,170
116.58964851397239,10,5,14,14,174
78.18693376816037,10,5,14,15,178
74.48619478887625,10,5,14,16,182
65.04608720365998,10,5,15,1,190
63.4298511215907,10,5,15,2,194
62.34212531909332,10,5,15,3,198
59.54356580043681,10,5,15,4,202
45.458765046234404,10,5,15,6,206
53.640816775816184,10,5,15,7,210
57.40500933945365,10,5,15,8,214
60.647907052347804,10,5,15,9,218
63.48255015705529,10,5,15,10,222
66.10881633227625,10,5,15,11,226
68.94877785306272,10,5,15,12,230
72.45536977006421,10,5,15,13,234
78.16722281961347,10,5,15,14,238
118.9052653128509,10,5,15,15,242
80.87509330182645,10,5,15,16,246
68.56360032919939,10,5,16,1,254
65.81757520890957,10,5,16,2,2
64.51692597373224,10,5,16,3,6
61.58451330000091,10,5,16,4,10
45.30558541535547,10,5,16,6,14
53.305373366283845,10,5,16,7,18
57.07493230496329,10,5,16,8,22
60.13903394306974,10,5,16,9,26
62.8591009702866,10,5,16,10,30
65.261039696639,10,5,16,11,34
67.79571760842937,10,5,16,12,38
70.68850165667443,10,5,16,13,42
74.53706284283692,10,5,16,14,46
80.92208907656807,10,5,16,15,50
123.10597195281086,10,5,16,16,54
40.57183390730251,10,6,7,1,62
41.11880410744934,10,6,7,2,66
40.25631465066595,10,6,7,3,70
39.874343466487545,10,6,7,4,74
34.3958578138413,10,6,7,5,78
82.63061544449685,10,6,7,7,82
46.32925886242448,10,6,7,8,86
43.70088274721682,10,6,7,9,90
43.21448893827285,10,6,7,10,94
42.61943542311155,10,6,7,11,98
42.80433632926806,10,6,7,12,102
42.19510471595787,10,6,7,13,106
42.35538972850689,10,6,7,14,110
41.94428230611594,10,6,7,15,114
41.890858007864,10,6,7,16,118
45.516308001621894,10,6,8,1,126
45.94194716628976,10,6,8,2,130
44.97338608656472,10,6,8,3,134
44.40434381919006,10,6,8,4,138
36.13090072188538,10,6,8,5,142
45.69405320519555,10,6,8,7,146
92.8909506810739,10,6,8,8,150
53.79886536013995,10,6,8,9,154
51.329706604352694,10,6,8,10,158
49.672687164797935,10,6,8,11,162
49.648080230963295,10,6,8,12,166
49.012579931179644,10,6,8,13,170
48.80145152152296,10,6,8,14,174
48.02076998220356,10,6,8,15,178
47.822607294115585,10,6,8,16,182
48.171495905931195,10,6,9,1,190
48.49106264535177,10,6,9,2,194
47.788641259369236,10,6,9,3,198
46.73055686815678,10,6,9,4,202
36.657704731415585,10,6,9,5,206
43.69649597334012,10,6,9,7,210
54.44696295970712,10,6,9,8,214
95.75559034562244,10,6,9,9,218
58.56317597879467,10,6,9,10,222
54.85934536788453,10,6,9,11,226
54.146410451378856,10,6,9,12,230
53.18193007825554,10,6,9,13,234
52.688026600068916,10,6,9,14,238
51.64632116776905,10,6,9,15,242
51.359231431164645,10,6,9,16,246
50.20552111992224,10,6,10,1,254
50.471516734072466,10,6,10,2,2
49.72633792591008,10,6,10,3,6
48.49825213313527,10,6,10,4,10
36.93950915210745,10,6,10,5,14
42.98085165392106,10,6,10,7,18
51.42129313178114,10,6,10,8,22
57.92921557210078,10,6,10,9,26
100.7219448203925,10,6,10,10,30
61.82917136286822,10,6,10,11,34
58.71051983507146,10,6,10,12,38
56.95151556162628,10,6,10,13,42
56.07732006923388,10,6,10,14,46
54.805920277955735,10,6,10,15,50
54.347766982198344,10,6,10,16,54
51.87638957476365,10,6,11,1,62
52.01411966648277,10,6,11,2,66
51.24544741306952,10,6,11,3,70
49.86500660610544,10,6,11,4,74
37.08748270783173,10,6,11,5,78
42.57570560542512,10,6,11,7,82
50.31875197720293,10,6,11,8,86
54.85260894966291,10,6,11,9,90
62.29274581302921,10,6,11,10,94
104.29945956204601,10,6,11,11,98
64.59896935894972,10,6,11,12,102
60.892391164000024,10,6,11,13,106
59.21176422689989,10,6,11,14,110
57.675182544940185,10,6,11,15,114
56.9302500407216,10,6,11,16,118
53.55190250498593,10,6,12,1,126
53.53899132327942,10,6,12,2,130
52.692202531539024,10,6,12,3,134
51.22111031904354,10,6,12,4,138
37.222891722427505,10,6,12,5,142
42.353886290735744,10,6,12,7,146
49.699546845113865,10,6,12,8,150
53.46992387496724,10,6,12,9,154
58.63383102918813,10,6,12,10,158
64.1803372482504,10,6,12,11,162
105.19517906040035,10,6,12,12,166
66.7491897531984,10,6,12,13,170
62.961741011288474,10,6,12,14,174
60.82977016303178,10,6,12,15,178
59.67775500364079,10,6,12,16,182
55.18083254140219,10,6,13,1,190
55.0363002517836,10,6,13,2,194
54.18932412838728,10,6,13,3,198
52.5467547388532,10,6,13,4,202
37.367327052271456,10,6,13,5,206
42.19296216426258,10,6,13,7,210
49.276469043312524,10,6,13,8,214
52.660616969751835,10,6,13,9,218
57.073257636938436,10,6,13,10,222
60.47549610806645,10,6,13,11,226
66.84703492060962,10,6,13,12,230
107.51494399207648,10,6,13,13,234
68.60857216126983,10,6,13,14,238
64.55457096488085,10,6,13,15,242
62.67509929412449,10,6,13,16,246
57.10887443049914,10,6,14,1,254
56.757226812893826,10,6,14,2,2
55.84860037395114,10,6,14,3,6
54.075998707768825,10,6,14,4,10
37.54216717577004,10,6,14,5,14
42.106187056679204,10,6,14,7,18
48.99321190073836,10,6,14,8,22
52.14436553351896,10,6,14,9,26
56.129403318061975,10,6,14,10,30
58.69641483814416,10,6,14,11,34
63.03324662358005,10,6,14,12,38
68.57005542768725,10,6,14,13,42
109.04836468287496,10,6,14,14,46
70.511580381957,10,6,14,15,50
66.7020840290705,10,6,14,16,54
59.48237983858649,10,6,15,1,62
58.742969416114676,10,6,15,2,66
57.747520121556384,10,6,15,3,70
55.80429304119712,10,6,15,4,74
37.68743106717399,10,6,15,5,78
41.96267164541924,10,6,15,7,82
48.74493937295916,10,6,15,8,86
51.692354191739206,10,6,15,9,90
55.44541344200687,10,6,15,10,94
57.66610464274956,10,6,15,11,98
61.3113504377592,10,6,15,12,102
64.79539280768701,10,6,15,13,106
70.72114456891477,10,6,15,14,110
111.55383777790107,10,6,15,15,114
73.16336756228223,10,6,15,16,118
63.12831291198859,10,6,16,1,126
61.31298938634511,10,6,16,2,130
60.01561849609102,10,6,16,3,134
58.01358020324616,10,6,16,4,138
37.782844411507845,10,6,16,5,142
41.847908814717535,10,6,16,7,146
48.45782573759312,10,6,16,8,150
51.3199169564355,10,6,16,9,154
54.85939544179631,10,6,16,10,158
56.912383990071426,10,6,16,11,162
60.240015136984326,10,6,16,12,166
63.11707876013654,10,6,16,13,170
67.13338681547049,10,6,16,14,174
73.44233108522415,10,6,16,15,178
115.69551047876125,10,6,16,16,182
40.42752928268412,10,7,8,1,190
40.31892909513759,10,7,8,2,194
40.173426887737136,10,7,8,3,198
39.920747828958255,10,7,8,4,202
37.148461959740814,10,7,8,5,206
35.4847612250396,10,7,8,6,210
81.9196162944658,10,7,8,8,214
45.49700468846546,10,7,8,9,218
43.19825898788383,10,7,8,10,222
42.48490145859961,10,7,8,11,226
42.062166285016595,10,7,8,12,230
41.811211102686116,10,7,8,13,234
41.62354698876853,10,7,8,14,238
41.50471717528061,10,7,8,15,242
41.37528911794515,10,7,8,16,246
45.02721105565965,10,7,9,1,254
44.86398148055155,10,7,9,2,2
44.64292534930843,10,7,9,3,6
44.21994242617596,10,7,9,4,10
39.682356518878436,10,7,9,5,14
37.517301921257676,10,7,9,6,18
45.568457641847935,10,7,9,8,22
89.08196849280235,10,7,9,9,26
52.404193962080186,10,7,9,10,30
49.66617010037381,10,7,9,11,34
48.530035245145044,10,7,9,12,38
47.921818999136974,10,7,9,13,42
47.44581081749278,10,7,9,14,46
47.141713409748476,10,7,9,15,50
46.926263550172976,10,7,9,16,54
47.871594471582945,10,7,10,1,62
47.593859414102404,10,7,10,2,66
47.289599010051965,10,7,10,3,70
46.77669458942549,10,7,10,4,74
40.72864593933349,10,7,10,5,78
38.22870646965404,10,7,10,6,82
43.284342359420755,10,7,10,8,86
52.383776968057035,10,7,10,9,90
95.3759232683555,10,7,10,10,94
57.27902107952251,10,7,10,11,98
53.875102279988226,10,7,10,12,102
52.488299008277274,10,7,10,13,106
51.61603501922426,10,7,10,14,110
51.09662837968477,10,7,10,15,114
50.6633444693561,10,7,10,16,118
49.91978803466827,10,7,11,1,126
49.5361793292627,10,7,11,2,130
49.15228489525984,10,7,11,3,134
48.599498931877775,10,7,11,4,138
41.26529199675058,10,7,11,5,142
38.602218618767445,10,7,11,6,146
42.561500290526645,10,7,11,8,150
49.70886393100669,10,7,11,9,154
57.267119548389154,10,7,11,10,158
99.82776029521506,10,7,11,11,162
60.139990627545046,10,7,11,12,166
56.64625316756161,10,7,11,13,170
55.12278400602451,10,7,11,14,174
54.20932574132224,10,7,11,15,178
53.60036437618016,10,7,11,16,182
51.792691931219196,10,7,12,1,190
51.29080706763772,10,7,12,2,194
50.81420955938085,10,7,12,3,198
50.124892216995406,10,7,12,4,202
41.66697715214418,10,7,12,5,206
38.822069234305445,10,7,12,6,210
42.144190550907474,10,7,12,8,214
48.53480084516163,10,7,12,9,218
53.86002419037921,10,7,12,10,222
60.096165382267216,10,7,12,11,226
100.98735980514287,10,7,12,12,230
62.75754024306999,10,7,12,13,234
59.06296601957652,10,7,12,14,238
57.4477133338926,10,7,12,15,242
56.57391774132307,10,7,12,16,246
53.595506365026104,10,7,13,1,254
52.97671476025709,10,7,13,2,2
52.40300190940062,10,7,13,3,6
51.62263056275697,10,7,13,4,10
41.97046147556805,10,7,13,5,14
39.00486921045512,10,7,13,6,18
41.89103048539294,10,7,13,8,22
47.90549814870568,10,7,13,9,26
52.4478250307156,10,7,13,10,30
56.67288037003106,10,7,13,11,34
62.82751344266462,10,7,13,12,38
103.71793145168941,10,7,13,13,42
64.8435105061166,10,7,13,14,46
61.223485589619536,10,7,13,15,50
59.745099864362025,10,7,13,16,54
55.671815318338005,10,7,14,1,62
54.80881447361753,10,7,14,2,66
54.15023315509329,10,7,14,3,70
53.24934923511328,10,7,14,4,74
42.24419447035629,10,7,14,5,78
39.14554738731012,10,7,14,6,82
41.71448670270293,10,7,14,8,86
47.47547423983185,10,7,14,9,90
51.59435913269489,10,7,14,10,94
55.11793227996626,10,7,14,11,98
59.091774322693425,10,7,14,12,102
64.80153784584651,10,7,14,13,106
105.47974261387382,10,7,14,14,110
67.19946417278041,10,7,14,15,114
63.80761025337477,10,7,14,16,118
58.086201157874,10,7,15,1,126
56.88572947919573,10,7,15,2,130
56.102909345695444,10,7,15,3,134
55.069224711385274,10,7,15,4,138
42.483802638164065,10,7,15,5,142
39.251662547263514,10,7,15,6,146
41.53005431517996,10,7,15,8,150
47.14408422058855,10,7,15,9,154
51.02504174978673,10,7,15,10,158
54.18254397776511,10,7,15,11,162
57.4953306626105,10,7,15,12,166
61.20173393502453,10,7,15,13,170
67.18127731210646,10,7,15,14,174
108.27943466466421,10,7,15,15,178
70.41137441375817,10,7,15,16,182
61.87786469441778,10,7,16,1,190
59.57217521335034,10,7,16,2,194
58.56962806784897,10,7,16,3,198
57.39806081220753,10,7,16,4,202
42.72634214298851,10,7,16,5,206
39.30730998234472,10,7,16,6,210
41.375376559060086,10,7,16,8,214
46.90204200375312,10,7,16,9,218
50.613432689211024,10,7,16,10,222
53.582721261620556,10,7,16,11,226
56.568702135775645,10,7,16,12,230
59.70798005264972,10,7,16,13,234
63.80369981597794,10,7,16,14,238
70.49838150654783,10,7,16,15,242
113.42099567069698,10,7,16,16,246
39.669290161986424,10,8,9,1,254
40.20124421181968,10,8,9,2,2
39.47009397202256,10,8,9,3,6
39.351497696827415,10,8,9,4,10
37.58190608771226,10,8,9,5,14
37.689824980089746,10,8,9,6,18
34.95509308042963,10,8,9,7,22
78.74123736430624,10,8,9,9,26
44.60985380956254,10,8,9,10,30
42.16399901609902,10,8,9,11,34
41.9663271239161,10,8,9,12,38
41.199509533167785,10,8,9,13,42
41.2262491120462,10,8,9,14,46
40.61913349492839,10,8,9,15,50
40.53926782075132,10,8,9,16,54
44.76491433812235,10,8,10,1,62
45.20162636182642,10,8,10,2,66
44.39178060594063,10,8,10,3,70
44.153992429671355,10,8,10,4,74
40.891340741785946,10,8,10,5,78
40.69147031469067,10,8,10,6,82
37.25357140387387,10,8,10,7,86
44.1671111711058,10,8,10,9,90
89.93214698945818,10,8,10,10,94
52.06030914852948,10,8,10,11,98
49.62686258813874,10,8,10,12,102
48.23869781216537,10,8,10,13,106
47.73550938315205,10,8,10,14,110
46.8110454879718,10,8,10,15,114
46.58333310265548,10,8,10,16,118
47.54172624890711,10,8,11,1,126
47.92463727962221,10,8,11,2,130
47.23665804024381,10,8,11,3,134
46.66486077628007,10,8,11,4,138
42.13074437248972,10,8,11,5,142
41.814330971037556,10,8,11,6,146
37.97753784661968,10,8,11,7,150
42.15715022702782,10,8,11,9,154
52.58106590077726,10,8,11,10,158
95.73025811903265,10,8,11,11,162
56.68228875908379,10,8,11,12,166
53.321925135873464,10,8,11,13,170
52.02532543727837,10,8,11,14,174
50.664236482825736,10,8,11,15,178
50.23980842549699,10,8,11,16,182
49.82660787274581,10,8,12,1,190
50.067993002218884,10,8,12,2,194
49.389991405562284,10,8,12,3,198
48.675551104530065,10,8,12,4,202
42.933486904529055,10,8,12,5,206
42.47118777160709,10,8,12,6,210
38.38248018897124,10,8,12,7,214
41.42589115603361,10,8,12,9,218
49.49592142405327,10,8,12,10,222
56.03368581730028,10,8,12,11,226
97.90883853489889,10,8,12,12,230
59.83452228035365,10,8,12,13,234
56.38989372245911,10,8,12,14,238
54.34056156590772,10,8,12,15,242
53.595063098547364,10,8,12,16,246
51.898458029303356,10,8,13,1,254
52.015055089207245,10,8,13,2,2
51.286248202294644,10,8,13,3,6
50.3995130321738,10,8,13,4,10
43.464240031787725,10,8,13,5,14
42.84308148116644,10,8,13,6,18
38.66275329193512,10,8,13,7,22
41.044870491256745,10,8,13,9,26
48.33479609361795,10,8,13,10,30
52.82269164501155,10,8,13,11,34
59.98444362381894,10,8,13,12,38
101.01412154792743,10,8,13,13,42
62.39252327085805,10,8,13,14,46
58.36941154070198,10,8,13,15,50
57.036622695676485,10,8,13,16,54
54.13469822540164,10,8,14,1,62
53.9844135949999,10,8,14,2,66
53.23081065869653,10,8,14,3,70
52.198354920535245,10,8,14,4,74
43.91388962750257,10,8,14,5,78
43.14382224144582,10,8,14,6,82
38.80080954698054,10,8,14,7,86
40.80207209216032,10,8,14,9,90
47.683961123821405,10,8,14,10,94
51.44681784690554,10,8,14,11,98
56.42202641954669,10,8,14,12,102
62.352987241981815,10,8,14,13,106
103.19215974660712,10,8,14,14,110
64.8208414365473,10,8,14,15,114
61.3080980323492,10,8,14,16,118
56.67934995301813,10,8,15,1,126
56.185308253337126,10,8,15,2,130
55.327406749727764,10,8,15,3,134
54.09677047125154,10,8,15,4,138
44.323299436688856,10,8,15,5,142
43.46227266826642,10,8,15,6,146
38.986815568181214,10,8,15,7,150
40.62790413563555,10,8,15,9,154
47.315314140961966,10,8,15,10,158
50.68041525648455,10,8,15,11,162
55.01325453906896,10,8,15,12,166
58.93028948250599,10,8,15,13,170
65.1733344174132,10,8,15,14,174
106.19548410687607,10,8,15,15,178
68.09920774176213,10,8,15,16,182
60.601708732150996,10,8,16,1,190
58.998109662630185,10,8,16,2,194
57.886367039476134,10,8,16,3,198
56.56147017380785,10,8,16,4,202
44.68861886270813,10,8,16,5,206
43.656423169902574,10,8,16,6,210
39.09864033936546,10,8,16,7,214
40.518575910673604,10,8,16,9,218
46.94479965922639,10,8,16,10,222
50.23130617727741,10,8,16,11,226
54.166470012140834,10,8,16,12,230
57.462876505905534,10,8,16,13,234
61.848901932565674,10,8,16,14,238
68.3303717713181,10,8,16,15,242
111.0379590611232,10,8,16,16,246
39.92096393158632,10,9,10,1,254
39.814870122479086,10,9,10,2,2
40.251102393322206,10,9,10,3,6
39.60047463592486,10,9,10,4,10
38.13406655769772,10,9,10,5,14
37.83281666457791,10,9,10,6,18
37.13110429556696,10,9,10,7,22
34.862024636932496,10,9,10,8,26
80.49478836440555,10,9,10,10,30
45.318829328890054,10,9,10,11,34
42.38630877657816,10,9,10,12,38
42.0462458418647,10,9,10,13,42
41.36969008784329,10,9,10,14,46
41.62195307779519,10,9,10,15,50
40.844707090786905,10,9,10,16,54
44.68224790241696,10,9,11,1,62
44.48361526717972,10,9,11,2,66
44.824236999286285,10,9,11,3,70
44.04445428965126,10,9,11,4,74
41.35963940741974,10,9,11,5,78
40.88449079031974,10,9,11,6,82
39.78711160729225,10,9,11,7,86
36.8095417110054,10,9,11,8,90
44.98298571585953,10,9,11,10,94
90.38901313198879,10,9,11,11,98
51.64729515512979,10,9,11,12,102
49.055443108004596,10,9,11,13,106
47.759704843203515,10,9,11,14,110
47.455611910263,10,9,11,15,114
46.50050276939496,10,9,11,16,118
47.69665360308831,10,9,12,1,126
47.365878025746014,10,9,12,2,130
47.671185693724325,10,9,12,3,134
46.813441843978595,10,9,12,4,138
42.895303004331474,10,9,12,5,142
42.3132514353831,10,9,12,6,146
40.980288213841625,10,9,12,7,150
37.56625248757431,10,9,12,8,154
42.64487107144342,10,9,12,10,158
52.036013519435556,10,9,12,11,162
93.91330251088749,10,9,12,12,166
56.40503493535407,10,9,12,13,170
53.040406262785275,10,9,12,14,174
51.88949464561512,10,9,12,15,178
50.60672356611183,10,9,12,16,182
50.20767790905401,10,9,13,1,190
49.74451637911418,10,9,13,2,194
49.96870089056064,10,9,13,3,198
48.9605648197952,10,9,13,4,202
43.88144133559275,10,9,13,5,206
43.12433467393866,10,9,13,6,210
41.645889733460876,10,9,13,7,214
37.978441318227404,10,9,13,8,218
41.92394692928917,10,9,13,10,222
49.27410327331674,10,9,13,11,226
56.22607775385503,10,9,13,12,230
98.02759407297971,10,9,13,13,234
59.46943886962203,10,9,13,14,238
56.308636605417725,10,9,13,15,242
54.4123582334132,10,9,13,16,246
52.653815212027325,10,9,14,1,254
51.97884368246459,10,9,14,2,2
52.15077827027391,10,9,14,3,6
51.02574094744458,10,9,14,4,10
44.579681494370924,10,9,14,5,14
43.70330673052523,10,9,14,6,18
42.09144540056708,10,9,14,7,22
38.21649967293603,10,9,14,8,26
41.459117540465584,10,9,14,10,30
48.11377115429237,10,9,14,11,34
52.89224609633468,10,9,14,12,38
59.538642563349306,10,9,14,13,42
100.58054863593279,10,9,14,14,46
62.728053338188744,10,9,14,15,50
58.92945062412824,10,9,14,16,54
55.38624437395286,10,9,15,1,62
54.27410291177307,10,9,15,2,66
54.32679456663431,10,9,15,3,70
53.05924427861301,10,9,15,4,74
45.114149503821814,10,9,15,5,78
44.11902453912628,10,9,15,6,82
42.33366113537258,10,9,15,7,86
38.348428224665554,10,9,15,8,90
41.11566267580462,10,9,15,10,94
47.48451298262021,10,9,15,11,98
51.510012880204755,10,9,15,12,102
56.17119348105494,10,9,15,13,106
62.56425517153229,10,9,15,14,110
104.04240436571745,10,9,15,15,114
65.836886424298,10,9,15,16,118
59.35088073302668,10,9,16,1,126
57.17939608386475,10,9,16,2,130
57.06055140903768,10,9,16,3,134
55.615785406175014,10,9,16,4,138
45.57120383083467,10,9,16,5,142
44.39428727325814,10,9,16,6,146
42.52649851900748,10,9,16,7,150
38.406803949133966,10,9,16,8,154
41.10951971756193,10,9,16,10,158
47.123596430173784,10,9,16,11,162
50.97862030279363,10,9,16,12,166
54.91714495732143,10,9,16,13,170
59.40653406018031,10,9,16,14,174
66.49565651432943,10,9,16,15,178
108.66490919669357,10,9,16,16,182
40.54690280659272,10,10,11,1,190
40.4249854986827,10,10,11,2,194
41.06131155676574,10,10,11,3,198
40.265957892399065,10,10,11,4,202
39.05283064028262,10,10,11,5,206
39.02658697274863,10,10,11,6,210
38.48478416742971,10,10,11,7,214
37.689677711132624,10,10,11,8,218
36.10510544124181,10,10,11,9,222
81.44283025949076,10,10,11,11,226
45.40441052772288,10,10,11,12,230
43.36939543065796,10,10,11,13,234
42.630456157565405,10,10,11,14,238
42.19728166373022,10,10,11,15,242
41.440538884402606,10,10,11,16,246
45.79976170880014,10,10,12,1,254
45.83861420549742,10,10,12,2,2
46.17954175630362,10,10,12,3,6
45.27009959209662,10,10,12,4,10
42.86106251654665,10,10,12,5,14
42.863869505099004,10,10,12,6,18
41.91185491405512,10,10,12,7,22
41.010950939880615,10,10,12,8,26
38.4086945132491,10,10,12,9,30
45.34942030132777,10,10,12,11,34
89.6427057242814,10,10,12,12,38
52.84996505063679,10,10,12,13,42
50.020896442028935,10,10,12,14,46
48.933369808957146,10,10,12,15,50
47.835512257779435,10,10,12,16,54
49.052087914135356,10,10,13,1,62
49.01238222509184,10,10,13,2,66
49.17108378661262,10,10,13,3,70
48.16578973794707,10,10,13,4,74
44.554336021149155,10,10,13,5,78
44.45130611234533,10,10,13,6,82
43.32760743770827,10,10,13,7,86
42.176598552312996,10,10,13,8,90
39.22613369443547,10,10,13,9,94
43.32684439860291,10,10,13,11,98
52.87913032453004,10,10,13,12,102
95.11518888478058,10,10,13,13,106
57.2057968454383,10,10,13,14,110
54.11048140107997,10,10,13,15,114
52.40348630095393,10,10,13,16,118
51.95381244649801,10,10,14,1,126
51.74717338854182,10,10,14,2,130
51.719685014568384,10,10,14,3,134
50.634660935517886,10,10,14,4,138
45.711376831976885,10,10,14,5,142
45.486273135175274,10,10,14,6,146
44.17692554818516,10,10,14,7,150
42.893123349521865,10,10,14,8,154
39.623796874103554,10,10,14,9,158
42.60129567151303,10,10,14,11,162
50.06554885924106,10,10,14,12,166
57.213327366663485,10,10,14,13,170
98.64872102527559,10,10,14,14,174
61.01239558486945,10,10,14,15,178
57.386594198704245,10,10,14,16,182
54.98597945732398,10,10,15,1,190
54.428707072413616,10,10,15,2,194
54.23083531998795,10,10,15,3,198
53.05284849542067,10,10,15,4,202
46.50896699511526,10,10,15,5,206
46.20722730275473,10,10,15,6,210
44.7641748840216,10,10,15,7,214
43.34665448629106,10,10,15,8,218
39.91806850755959,10,10,15,9,222
42.27514695381925,10,10,15,11,226
49.04067883307908,10,10,15,12,230
54.18809400393455,10,10,15,13,234
61.037129490002656,10,10,15,14,238
102.53807672628028,10,10,15,15,242
64.6155622472174,10,10,15,16,246
59.21531537950638,10,10,16,1,254
57.59617182162488,10,10,16,2,2
57.09608726667877,10,10,16,3,6
55.79815181301283,10,10,16,4,10
47.20003206024989,10,10,16,5,14
46.76264921172555,10,10,16,6,18
45.186326442017574,10,10,16,7,22
43.689328762882255,10,10,16,8,26
39.9670964310478,10,10,16,9,30
42.03356453924202,10,10,16,11,34
48.51130979346334,10,10,16,12,38
53.09523837183714,10,10,16,13,42
58.02516124916918,10,10,16,14,46
65.17963585533198,10,10,16,15,50
107.43591380472203,10,10,16,16,54
41.93450196504012,10,11,12,1,62
41.86730303968674,10,11,12,2,66
42.357879977572956,10,11,12,3,70
41.61652419497715,10,11,12,4,74
40.41407854510136,10,11,12,5,78
40.2685546334826,10,11,12,6,82
40.058010744135125,10,11,12,7,86
39.607995282908405,10,11,12,8,90
39.58031679294762,10,11,12,9,94
37.070443239839435,10,11,12,10,98
81.50290052610664,10,11,12,12,102
46.73869662919616,10,11,12,13,106
44.47991260514573,10,11,12,14,110
43.98108667814996,10,11,12,15,114
43.05581953459765,10,11,12,16,118
47.19725524295107,10,11,13,1,126
46.92251507619314,10,11,13,2,130
47.40916662287424,10,11,13,3,134
46.57569471887765,10,11,13,4,138
44.194564569305996,10,11,13,5,142
43.930859086881384,10,11,13,6,146
43.5341337847242,10,11,13,7,150
42.83327898530603,10,11,13,8,154
42.41091383581883,10,11,13,9,158
39.13203234468907,10,11,13,10,162
46.56241983621145,10,11,13,12,166
91.11482366400189,10,11,13,13,170
53.76982529137626,10,11,13,14,174
51.20412393295013,10,11,13,15,178
49.630630167573685,10,11,13,16,182
50.79662848373952,10,11,14,1,190
50.290644210104766,10,11,14,2,194
50.704053014210814,10,11,14,3,198
49.78691067592487,10,11,14,4,202
46.04263700090587,10,11,14,5,206
45.645717716415305,10,11,14,6,210
45.12020063572585,10,11,14,7,214
44.244056599389815,10,11,14,8,218
43.51616549848216,10,11,14,9,222
39.87821974872296,10,11,14,10,226
44.4050313031844,10,11,14,12,230
53.83670840546482,10,11,14,13,234
96.09585187010481,10,11,14,14,238
58.77240814449453,10,11,14,15,242
55.28226638566015,10,11,14,16,246
54.24046781079294,10,11,15,1,254
53.33597331105119,10,11,15,2,2
53.60046936123997,10,11,15,3,6
52.51507799707503,10,11,15,4,10
47.244035398956164,10,11,15,5,14
46.67399887680397,10,11,15,6,18
46.0680617875389,10,11,15,7,22
45.00611759869305,10,11,15,8,26
44.18866170929972,10,11,15,9,30
40.25775366235594,10,11,15,10,34
43.68543157994602,10,11,15,12,38
51.16140884574776,10,11,15,13,42
58.707441987212604,10,11,15,14,46
100.77482760609757,10,11,15,15,50
62.84389064648405,10,11,15,16,54
58.54466105661985,10,11,16,1,62
56.5986894346863,10,11,16,2,66
56.597195624925845,10,11,16,3,70
55.43275831151985,10,11,16,4,74
48.05387927710634,10,11,16,5,78
47.35186094383549,10,11,16,6,82
46.613110620026106,10,11,16,7,86
45.47179092017154,10,11,16,8,90
44.49219206178714,10,11,16,9,94
40.50526115562024,10,11,16,10,98
43.458048480243676,10,11,16,12,102
50.243418026605475,10,11,16,13,106
55.90870785366123,10,11,16,14,110
63.51384694867926,10,11,16,15,114
105.97904480841555,10,11,16,16,118
40.59831652852844,10,12,13,1,126
40.82229698254175,10,12,13,2,130
40.96800795873032,10,12,13,3,134
40.28032287218548,10,12,13,4,138
39.064364840900694,10,12,13,5,142
39.36921554912952,10,12,13,6,146
38.7631280624585,10,12,13,7,150
38.91982228919816,10,12,13,8,154
38.10012345185355,10,12,13,9,158
38.03610331940935,10,12,13,10,162
35.69787621825535,10,12,13,11,166
80.26720898221326,10,12,13,13,170
45.193367280462134,10,12,13,14,174
43.013969586316534,10,12,13,15,178
41.89077381710735,10,12,13,16,182
46.331881573059206,10,12,14,1,190
46.38486922842098,10,12,14,2,194
46.37210869983602,10,12,14,3,198
45.57815994270021,10,12,14,4,202
43.02627959584404,10,12,14,5,206
43.27515035784423,10,12,14,6,210
42.44440336342752,10,12,14,7,214
42.500826160224754,10,12,14,8,218
41.506009193097185,10,12,14,9,222
40.859423997833886,10,12,14,10,226
37.81840581950508,10,12,14,11,230
45.19485472831964,10,12,14,13,234
89.4182907541535,10,12,14,14,238
52.75790639618235,10,12,14,15,242
49.71353474608364,10,12,14,16,246
50.345890920829255,10,12,15,1,254
50.10465571394482,10,12,15,2,2
49.97146967257793,10,12,15,3,6
49.019576272361086,10,12,15,4,10
44.88051865267555,10,12,15,5,14
45.02748732693464,10,12,15,6,18
44.0449073073371,10,12,15,7,22
43.99310970485862,10,12,15,8,26
42.897036840079316,10,12,15,9,30
41.92942885270442,10,12,15,10,34
38.54277235838451,10,12,15,11,38
43.185799089827945,10,12,15,13,42
52.85645944881676,10,12,15,14,46
95.37454763283023,10,12,15,15,50
57.99135789628054,10,12,15,16,54
55.077144169362896,10,12,16,1,62
53.753966432431014,10,12,16,2,66
53.29061128774737,10,12,16,3,70
52.23142066476834,10,12,16,4,74
46.0483790382636,10,12,16,5,78
46.04872164469489,10,12,16,6,82
44.93330132647681,10,12,16,7,86
44.81668865964424,10,12,16,8,90
43.33433430591005,10,12,16,9,94
42.42161784982267,10,12,16,10,98
38.781294818167765,10,12,16,11,102
42.56754357641898,10,12,16,13,106
50.36456073171862,10,12,16,14,110
58.50788056550927,10,12,16,15,114
101.35244188110924,10,12,16,16,118
41.39199145101983,10,13,14,1,126
41.11710601375009,10,13,14,2,130
41.735191659660465,10,13,14,3,134
40.958693737994174,10,13,14,4,138
39.607598680983365,10,13,14,5,142
39.726731192894285,10,13,14,6,146
39.34406420017224,10,13,14,7,150
39.31705625304026,10,13,14,8,154
39.34123450337075,10,13,14,9,158
39.19899405826899,10,13,14,10,162
38.350835398693356,10,13,14,11,166
36.266601258229194,10,13,14,12,170
80.57668326674941,10,13,14,14,174
45.909414737490785,10,13,14,15,178
43.425800200095146,10,13,14,16,182
47.41185830083167,10,13,15,1,190
47.05480268439308,10,13,15,2,194
47.279607907674006,10,13,15,3,198
46.35385517617855,10,13,15,4,202
43.44077762012058,10,13,15,5,206
43.520855361306914,10,13,15,6,210
42.91534537945458,10,13,15,7,214
42.90207753685531,10,13,15,8,218
42.65084465109881,10,13,15,9,222
42.19802470430113,10,13,15,10,226
41.04821890434313,10,13,15,11,230
38.2188488370986,10,13,15,12,234
45.95413737289852,10,13,15,14,238
90.53333042566491,10,13,15,15,242
53.66590919106296,10,13,15,16,246
52.72937501094285,10,13,16,1,254
51.418940262172164,10,13,16,2,2
51.233348675748886,10,13,16,3,6
50.227785868399515,10,13,16,4,10
45.18572153175621,10,13,16,5,14
45.209155107660735,10,13,16,6,18
44.443704002001176,10,13,16,7,22
44.37745928182555,10,13,16,8,26
43.861294453078756,10,13,16,9,30
43.305482983144486,10,13,16,10,34
41.93884361110751,10,13,16,11,38
38.859130108493645,10,13,16,12,42
44.08630189237318,10,13,16,14,46
54.278525702458744,10,13,16,15,50
97.71202624122223,10,13,16,16,54
41.23558680283058,10,14,15,1,62
41.10612960507282,10,14,15,2,66
41.3582298650826,10,14,15,3,70
40.61715847083105,10,14,15,4,74
39.01813727827269,10,14,15,5,78
39.216325346604755,10,14,15,6,82
38.75322027810443,10,14,15,7,86
38.92632234374927,10,14,15,8,90
38.7280372486931,10,14,15,9,94
38.91190483654288,10,14,15,10,98
38.3590963574782,10,14,15,11,102
37.81814513245851,10,14,15,12,106
35.88757192473952,10,14,15,13,110
80.3706087610165,10,14,15,15,114
45.39424843463242,10,14,15,16,118
48.47648122800989,10,14,16,1,126
47.3533733438138,10,14,16,2,130
47.23540271100715,10,14,16,3,134
46.37444810941621,10,14,16,4,138
42.68516115551748,10,14,16,5,142
42.85729388459763,10,14,16,6,146
42.144592901839275,10,14,16,7,150
42.36854041210696,10,14,16,8,154
41.864738340040084,10,14,16,9,158
41.905526544939,10,14,16,10,162
41.152214188876805,10,14,16,11,166
40.332070555243355,10,14,16,12,170
37.740800643143466,10,14,16,13,174
45.97764359853688,10,14,16,15,178
91.35312309591869,10,14,16,16,182
42.07404927294979,10,15,16,1,190
40.9480136408007,10,15,16,2,194
41.3583646937534,10,15,16,3,198
40.580918763649514,10,15,16,4,202
38.51650081577937,10,15,16,5,206
38.37165004558688,10,15,16,6,210
38.33206752201726,10,15,16,7,214
38.146973831494215,10,15,16,8,218
38.65270574088133,10,15,16,9,222
38.46433929775465,10,15,16,10,226
38.3717485906648,10,15,16,11,230
37.84390830071135,10,15,16,12,234
37.36845988045999,10,15,16,13,238
35.386545451363666,10,15,16,14,242
80.89164904630384,10,15,16,16,246
129.6627521966525,10,1,2,2,250
97.49859227840362,10,1,2,3,254
94.89383536677992,10,1,2,4,2
91.13395395559135,10,1,2,5,6
91.29461161077433,10,1,2,6,10
90.77718252487756,10,1,2,7,14
91.02910655413407,10,1,2,8,18
90.56468190844016,10,1,2,9,22
90.39205821405757,10,1,2,10,26
90.29917748335197,10,1,2,11,30
90.16058246069524,10,1,2,12,34
89.99380138678913,10,1,2,13,38
89.76816866241818,10,1,2,14,42
89.36991207264721,10,1,2,15,46
88.83852640916993,10,1,2,16,50
97.56019461153419,10,1,3,2,58
147.28463001248636,10,1,3,3,62
111.06174048690602,10,1,3,4,66
100.23939850145106,10,1,3,5,70
100.15393039649229,10,1,3,6,74
99.36161126486682,10,1,3,7,78
99.6219877248545,10,1,3,8,82
99.02390503673146,10,1,3,9,86
98.83787969477702,10,1,3,10,90
98.65851635630774,10,1,3,11,94
98.6762509663968,10,1,3,12,98
98.31726974499225,10,1,3,13,102
98.04667341257944,10,1,3,14,106
97.52282264624137,10,1,3,15,110
96.8538010238793,10,1,3,16,114
94.87343109798503,10,1,4,2,122
111.09851999418015,10,1,4,3,126
177.73114391067503,10,1,4,4,130
106.20799817994171,10,1,4,5,134
104.79999015656962,10,1,4,6,138
103.6734610550799,10,1,4,7,142
103.59957903803985,10,1,4,8,146
102.91960819829944,10,1,4,9,150
102.57264693042849,10,1,4,10,154
102.30285545755935,10,1,4,11,158
101.99903174463273,10,1,4,12,162
101.64079775856973,10,1,4,13,166
101.15865952902672,10,1,4,14,170
100.5253186367623,10,1,4,15,174
99.65730179923546,10,1,4,16,178
90.90270327567265,10,1,5,2,186
100.02609029811703,10,1,5,3,190
106.00445754126268,10,1,5,4,194
201.5614717657293,10,1,5,5,198
157.070151600211,10,1,5,6,202
150.7082875512306,10,1,5,7,206
147.632266498056,10,1,5,8,210
144.95545789280465,10,1,5,9,214
143.56489733527974,10,1,5,10,218
141.79873450471237,10,1,5,11,222
140.66170421402714,10,1,5,12,226
139.0302229000312,10,1,5,13,230
137.30531706970058,10,1,5,14,234
134.7524716484348,10,1,5,15,238
131.75113951866797,10,1,5,16,242
91.10773426242075,10,1,6,2,250
99.86159796996246,10,1,6,3,254
104.60633323587487,10,1,6,4,2
156.7562600300194,10,1,6,5,6
198.65583704795262,10,1,6,6,10
156.43411366045834,10,1,6,7,14
151.71526977209402,10,1,6,8,18
148.70786725213003,10,1,6,9,22
146.885315783655,10,1,6,10,26
145.02731744090138,10,1,6,11,30
143.5831338030727,10,1,6,12,34
141.8872437271734,10,1,6,13,38
139.94894293108737,10,1,6,14,42
137.41903075046264,10,1,6,15,46
134.0301511356662,10,1,6,16,50
91.09963782862393,10,1,7,2,58
99.67595119862638,10,1,7,3,62
103.98090818416395,10,1,7,4,66
150.6379004918361,10,1,7,5,70
156.80216545089058,10,1,7,6,74
198.72262718963128,10,1,7,7,78
156.96303061025725,10,1,7,8,82
151.87360774317608,10,1,7,9,86
149.39329889532914,10,1,7,10,90
147.13447113265784,10,1,7,11,94
145.43595448628577,10,1,7,12,98
143.5651244031191,10,1,7,13,102
141.5333253525129,10,1,7,14,106
138.8204671434697,10,1,7,15,110
135.4509105825862,10,1,7,16,114
91.11013562277473,10,1,8,2,122
99.59913015189694,10,1,8,3,126
103.6351262582202,10,1,8,4,130
147.4693660808719,10,1,8,5,134
151.93956361684332,10,1,8,6,138
156.91272661787573,10,1,8,7,142
198.60196288011835,10,1,8,8,146
157.21744031328095,10,1,8,9,150
152.25699668588356,10,1,8,10,154
149.32069174717864,10,1,8,11,158
147.1806166642132,10,1,8,12,162
145.04348382345944,10,1,8,13,166
142.79680796671235,10,1,8,14,170
140.05424917994597,10,1,8,15,174
136.4047252754954,10,1,8,16,178
91.05055945913676,10,1,9,2,186
99.40233332710834,10,1,9,3,190
103.28582083675524,10,1,9,4,194
145.1700708985406,10,1,9,5,198
149.0597736849067,10,1,9,6,202
151.98762914256216,10,1,9,7,206
157.29004919840892,10,1,9,8,210
195.91354634101552,10,1,9,9,214
156.59905440275918,10,1,9,10,218
151.58415436968184,10,1,9,11,222
148.7239499792104,10,1,9,12,226
146.21143927559262,10,1,9,13,230
143.6860578513419,10,1,9,14,234
140.80263727596076,10,1,9,15,238
137.06194352631638,10,1,9,16,242
90.74322812077574,10,1,10,2,250
99.04816632379897,10,1,10,3,254
102.76939825576478,10,1,10,4,2
143.0985714912751,10,1,10,5,6
146.67823195519742,10,1,10,6,10
148.91014266663566,10,1,10,7,14
151.87705408395664,10,1,10,8,18
156.15819693751317,10,1,10,9,22
196.35588630607947,10,1,10,10,26
156.2214619106652,10,1,10,11,30
150.96929381203634,10,1,10,12,34
147.70832146326205,10,1,10,13,38
144.75480086620712,10,1,10,14,42
141.60169205624888,10,1,10,15,46
137.6986296935786,10,1,10,16,50
90.21630944341534,10,1,11,2,58
98.52682681928194,10,1,11,3,62
102.15465783533614,10,1,11,4,66
141.39936266362946,10,1,11,5,70
144.8020560544206,10,1,11,6,74
146.6646270136674,10,1,11,7,78
148.96325553859663,10,1,11,8,82
151.12999811680874,10,1,11,9,86
156.13816962894285,10,1,11,10,90
196.487995085636,10,1,11,11,94
155.03187386481216,10,1,11,12,98
149.73914998713178,10,1,11,13,102
146.07709600471014,10,1,11,14,106
142.57603429988416,10,1,11,15,110
138.496308428062,10,1,11,16,114
90.05613894390278,10,1,12,2,122
98.22555370541868,10,1,12,3,126
101.77894729461765,10,1,12,4,130
139.7273479290343,10,1,12,5,134
142.98499582878463,10,1,12,6,138
144.63314509834467,10,1,12,7,142
146.50307994508077,10,1,12,8,146
147.92786194489318,10,1,12,9,150
150.72269762901024,10,1,12,10,154
154.81214458363945,10,1,12,11,158
194.0805658233163,10,1,12,12,162
153.88995569843746,10,1,12,13,166
148.15739699102934,10,1,12,14,170
143.95244064929253,10,1,12,15,174
139.5651408082498,10,1,12,16,178
89.69540203700981,10,1,13,2,186
97.83152342919682,10,1,13,3,190
101.33143555423784,10,1,13,4,194
138.34245470640863,10,1,13,5,198
141.43638550833418,10,1,13,6,202
142.9200104825164,10,1,13,7,206
144.52279087354236,10,1,13,8,210
145.5397840442018,10,1,13,9,214
147.5432387494178,10,1,13,10,218
149.60144935375055,10,1,13,11,222
153.97323912205363,10,1,13,12,226
193.08106495857317,10,1,13,13,230
152.15370624406938,10,1,13,14,234
145.88738188284105,10,1,13,15,238
140.91653834437994,10,1,13,16,242
89.49677539430154,10,1,14,2,250
97.58371854614154,10,1,14,3,254
100.95113961205188,10,1,14,4,2
136.60288029125894,10,1,14,5,6
139.6027348883318,10,1,14,6,10
140.93958081365162,10,1,14,7,14
142.41101274968705,10,1,14,8,18
143.1700640916814,10,1,14,9,22
144.86936485733332,10,1,14,10,26
146.13545046162668,10,1,14,11,30
148.43628430612821,10,1,14,12,34
152.31035565390408,10,1,14,13,38
191.06303654269243,10,1,14,14,42
150.12090922372323,10,1,14,15,46
143.22668640330983,10,1,14,16,50
89.48935210469199,10,1,15,2,58
97.40869265687321,10,1,15,3,62
100.66913679133779,10,1,15,4,66
134.68449687329291,10,1,15,5,70
137.55446278211093,10,1,15,6,74
138.7278291743749,10,1,15,7,78
140.0654936015103,10,1,15,8,82
140.5454812303318,10,1,15,9,86
142.06977773298766,10,1,15,10,90
142.93843386378273,10,1,15,11,94
144.50986169231226,10,1,15,12,98
146.46460877694182,10,1,15,13,102
150.37852747442048,10,1,15,14,106
188.99135017386163,10,1,15,15,110
147.5601206238966,10,1,15,16,114
88.6619376458651,10,1,16,2,122
96.30059635220886,10,1,16,3,126
99.41089414849857,10,1,16,4,130
131.21286088127138,10,1,16,5,134
133.8978038251828,10,1,16,6,138
134.91808135539253,10,1,16,7,142
136.22151652709815,10,1,16,8,146
136.53905516926775,10,1,16,9,150
137.83767335955943,10,1,16,10,154
138.42622159108737,10,1,16,11,158
139.90988448607513,10,1,16,12,162
141.17625289351687,10,1,16,13,166
143.2862155594791,10,1,16,14,170
147.32927980633949,10,1,16,15,174
186.37735425106578,10,1,16,16,178
30.228907892594933,10,2,3,1,186
80.56015584693816,10,2,3,3,190
46.81804890047808,10,2,3,4,194
39.750958951269695,10,2,3,5,198
40.08281573415762,10,2,3,6,202
39.278082302238985,10,2,3,7,206
39.80757711312338,10,2,3,8,210
39.091133153073265,10,2,3,9,214
38.97248727547621,10,2,3,10,218
38.91879095427511,10,2,3,11,222
39.21250550729864,10,2,3,12,226
38.786688660915004,10,2,3,13,230
38.80016201368638,10,2,3,14,234
38.536636848957144,10,2,3,15,238
38.34836247045634,10,2,3,16,242
32.73221350363461,10,2,4,1,250
46.7832712453821,10,2,4,3,254
115.90734023717548,10,2,4,4,2
48.20228002539319,10,2,4,5,6
47.20831600805945,10,2,4,6,10
46.017871108290244,10,2,4,7,14
46.28033576700386,10,2,4,8,18
45.444857926450794,10,2,4,9,22
45.22240288997356,10,2,4,10,26
45.047944074091944,10,2,4,11,30
44.878522841947245,10,2,4,12,34
44.70250851598737,10,2,4,13,38
44.48078200454687,10,2,4,14,42
44.21275992970921,10,2,4,15,46
43.87096081580569,10,2,4,16,50
36.367532215636295,10,2,5,1,58
39.718883390942345,10,2,5,3,62
48.14995494574646,10,2,5,4,66
146.5757487311251,10,2,5,5,70
102.90011923188555,10,2,5,6,74
96.10496035695569,10,2,5,7,78
93.6613655329732,10,2,5,8,82
91.25528102702772,10,2,5,9,86
89.8838647937475,10,2,5,10,90
88.28829994322722,10,2,5,11,94
87.1172476601099,10,2,5,12,98
85.66190551401334,10,2,5,13,102
84.13761703533254,10,2,5,14,106
82.09024466371878,10,2,5,15,110
79.64250088630682,10,2,5,16,114
36.5705409603759,10,2,6,1,122
39.34704528731425,10,2,6,3,126
46.60472161594488,10,2,6,4,130
102.33719503104878,10,2,6,5,134
144.3912185404757,10,2,6,6,138
101.9833865918064,10,2,6,7,142
97.79329610436282,10,2,6,8,146
95.00034543803262,10,2,6,9,150
93.17939861716826,10,2,6,10,154
91.47015041857844,10,2,6,11,158
90.06611144068478,10,2,6,12,162
88.48388937041834,10,2,6,13,166
86.86163668864377,10,2,6,14,170
84.70339174810074,10,2,6,15,174
81.87782994160892,10,2,6,16,178
36.650517740926276,10,2,7,1,186
39.17613574816433,10,2,7,3,190
45.979154291468234,10,2,7,4,194
96.07491628162711,10,2,7,5,198
102.43096504262606,10,2,7,6,202
143.7588936366036,10,2,7,7,206
102.81700858154238,10,2,7,8,210
97.9373738830778,10,2,7,9,214
95.3172807961292,10,2,7,10,218
93.2034058400701,10,2,7,11,222
91.59389409943853,10,2,7,12,226
89.891561888615,10,2,7,13,230
88.04353797186957,10,2,7,14,234
85.79676814130319,10,2,7,15,238
83.07265516705012,10,2,7,16,242
36.795977580631885,10,2,8,1,250
39.13122895203941,10,2,8,3,254
45.64682949732799,10,2,8,4,2
92.91213754227823,10,2,8,5,6
97.56579569215724,10,2,8,6,10
102.19648565778424,10,2,8,7,14
144.38546355207555,10,2,8,8,18
103.28505374725611,10,2,8,9,22
98.38888547312553,10,2,8,10,26
95.56417792073871,10,2,8,11,30
93.52368961382265,10,2,8,12,34
91.50102853735173,10,2,8,13,38
89.49281449948118,10,2,8,14,42
87.10901406415343,10,2,8,15,46
84.06737025829102,10,2,8,16,50
36.867030116764,10,2,9,1,58
39.029847877058344,10,2,9,3,62
45.40826031125897,10,2,9,4,66
90.57442754992236,10,2,9,5,70
94.65197045016735,10,2,9,6,74
97.21591449011952,10,2,9,7,78
103.10214270914584,10,2,9,8,82
141.7628754248891,10,2,9,9,86
102.59205207836125,10,2,9,10,90
97.87017098150336,10,2,9,11,94
95.06515925689438,10,2,9,12,98
92.7388970773613,10,2,9,13,102
90.50548528232991,10,2,9,14,106
88.08641214275359,10,2,9,15,110
84.9629193937911,10,2,9,16,114
36.99926931318135,10,2,10,1,122
38.955277701260904,10,2,10,3,126
45.23844473681386,10,2,10,4,130
88.99839065356666,10,2,10,5,134
92.7780879051727,10,2,10,6,138
94.6951437296494,10,2,10,7,142
98.28788535571684,10,2,10,8,146
102.69636158511508,10,2,10,9,150
142.88949393767277,10,2,10,10,154
102.91538910378225,10,2,10,11,158
97.80274834749373,10,2,10,12,162
94.63875937220482,10,2,10,13,166
91.96793915611094,10,2,10,14,170
89.24108715609506,10,2,10,15,174
85.93299708599567,10,2,10,16,178
37.0985261781812,10,2,11,1,186
38.92120614099869,10,2,11,3,190
45.03247104485083,10,2,11,4,194
87.52068027385297,10,2,11,5,198
91.12193166774009,10,2,11,6,202
92.69307545328947,10,2,11,7,206
95.5958523514679,10,2,11,8,210
98.01115769476145,10,2,11,9,214
103.02338885539953,10,2,11,10,218
143.49509106158172,10,2,11,11,222
102.1925339631103,10,2,11,12,226
97.05976530289311,10,2,11,13,230
93.67618547721729,10,2,11,14,234
90.61068070544015,10,2,11,15,238
87.12761677174565,10,2,11,16,242
37.212354487499745,10,2,12,1,250
38.85966613294382,10,2,12,3,254
44.87670331507326,10,2,12,4,2
86.28045136062256,10,2,12,5,6
89.74656908601283,10,2,12,6,10
91.01740758171444,10,2,12,7,14
93.47489976008865,10,2,12,8,18
95.09418117731572,10,2,12,9,22
97.83819138208229,10,2,12,10,26
102.11328132209485,10,2,12,11,30
141.3966760840377,10,2,12,12,34
101.32869401073307,10,2,12,13,38
95.80314654650866,10,2,12,14,42
92.02173583036557,10,2,12,15,46
88.28661440156749,10,2,12,16,50
37.299978354775725,10,2,13,1,58
38.77753085328213,10,2,13,3,62
44.70026292956019,10,2,13,4,66
84.65163946999452,10,2,13,5,70
87.91189192502283,10,2,13,6,74
88.97831251557359,10,2,13,7,78
91.12392599120659,10,2,13,8,82
92.27986951676655,10,2,13,9,86
94.2344736933132,10,2,13,10,90
96.36223839636239,10,2,13,11,94
100.78233365714719,10,2,13,12,98
139.90522397120927,10,2,13,13,102
99.26634313496791,10,2,13,14,106
93.50298494712278,10,2,13,15,110
89.19665074310888,10,2,13,16,114
37.388241796299475,10,2,14,1,122
38.67623706907843,10,2,14,3,126
44.428742778205056,10,2,14,4,130
82.84632181281931,10,2,14,5,134
86.1060899370732,10,2,14,6,138
87.12501450389962,10,2,14,7,142
89.23613131923716,10,2,14,8,146
90.20357344259541,10,2,14,9,150
91.85480055793333,10,2,14,10,154
93.27791905302105,10,2,14,11,158
95.65645848692448,10,2,14,12,162
99.72392280326657,10,2,14,13,166
138.52877191947084,10,2,14,14,170
98.12978039397466,10,2,14,15,174
91.85664540499273,10,2,14,16,178
37.77079013117888,10,2,15,1,186
38.54019626801592,10,2,15,3,190
44.21332160093047,10,2,15,4,194
81.20009218928662,10,2,15,5,198
84.27946909592396,10,2,15,6,202
85.15075839022377,10,2,15,7,206
87.08329805347523,10,2,15,8,210
87.88913922499086,10,2,15,9,214
89.29760056346878,10,2,15,10,218
90.38759551062716,10,2,15,11,222
92.0541443920101,10,2,15,12,226
94.10894449174671,10,2,15,13,230
98.26081517736375,10,2,15,14,234
137.23544377915795,10,2,15,15,238
96.63311817435823,10,2,15,16,242
38.91244494065407,10,2,16,1,250
38.27201686139332,10,2,16,3,254
43.811923306189904,10,2,16,4,2
78.92753076189919,10,2,16,5,6
81.80992131674928,10,2,16,6,10
82.51563555200612,10,2,16,7,14
84.26662234759031,10,2,16,8,18
84.79553716910502,10,2,16,9,22
86.14622682608693,10,2,16,10,26
86.95924978044916,10,2,16,11,30
88.37475285771019,10,2,16,12,34
89.8103792602738,10,2,16,13,38
92.08306655081337,10,2,16,14,42
96.59306589047478,10,2,16,15,46
136.55701548995515,10,2,16,16,50
34.33212953325759,10,3,4,1,58
31.855906389566456,10,3,4,2,62
101.36517634856334,10,3,4,4,66
40.33920637384771,10,3,4,5,70
39.071398693579845,10,3,4,6,74
38.63227085236456,10,3,4,7,78
38.66002170897783,10,3,4,8,82
38.541601569210286,10,3,4,9,86
38.83361747660915,10,3,4,10,90
38.476687464777385,10,3,4,11,94
38.58365882580529,10,3,4,12,98
38.490735299345566,10,3,4,13,102
38.4118917644086,10,3,4,14,106
38.11907455641683,10,3,4,15,110
37.41781666774066,10,3,4,16,114
45.074080295613,10,3,5,1,122
38.906405954464994,10,3,5,2,126
40.32838199939415,10,3,5,4,130
145.2512400027155,10,3,5,5,134
101.8052011541011,10,3,5,6,138
95.26229821370963,10,3,5,7,142
92.83425570564631,10,3,5,8,146
90.90586855281369,10,3,5,9,150
89.32340259674186,10,3,5,10,154
87.96685821028098,10,3,5,11,158
86.70330469229252,10,3,5,12,162
85.42121963504434,10,3,5,13,166
83.9703619023255,10,3,5,14,170
82.30190488421124,10,3,5,15,174
79.53027023258429,10,3,5,16,178
45.51453985579604,10,3,6,1,186
39.2018341962014,10,3,6,2,190
39.08273583293045,10,3,6,4,194
101.29541791804864,10,3,6,5,198
143.6202535115732,10,3,6,6,202
101.34823703407449,10,3,6,7,206
97.1656226448821,10,3,6,8,210
94.67735020318962,10,3,6,9,214
92.77016463707507,10,3,6,10,218
91.18218219036146,10,3,6,11,222
89.73737112133941,10,3,6,12,226
88.24411707337951,10,3,6,13,230
86.61484633707883,10,3,6,14,234
84.77446643706989,10,3,6,15,238
81.87744335267469,10,3,6,16,242
45.75149922448357,10,3,7,1,250
39.37306307665425,10,3,7,2,254
38.64295208311666,10,3,7,4,2
95.02910499632232,10,3,7,5,6
101.68410363880791,10,3,7,6,10
143.33373261637183,10,3,7,7,14
102.48816570219599,10,3,7,8,18
98.01882726804793,10,3,7,9,22
95.43257858274244,10,3,7,10,26
93.55308492921675,10,3,7,11,30
91.88408211766318,10,3,7,12,34
90.26903157614781,10,3,7,13,38
88.59251164269085,10,3,7,14,42
86.61331476700329,10,3,7,15,46
83.58182107996299,10,3,7,16,50
46.085144872304596,10,3,8,1,58
39.54638392398732,10,3,8,2,62
38.472863465619184,10,3,8,4,66
92.28417161986367,10,3,8,5,70
97.12847326266319,10,3,8,6,74
102.0382639062569,10,3,8,7,78
144.36885159265827,10,3,8,8,82
103.4925019148803,10,3,8,9,86
98.63224111911997,10,3,8,10,90
95.95972633060072,10,3,8,11,94
93.84600779871565,10,3,8,12,98
91.97103805947124,10,3,8,13,102
90.07733313594905,10,3,8,14,106
87.97519660826185,10,3,8,15,110
84.80659727653124,10,3,8,16,114
46.233564026022876,10,3,9,1,122
39.57956674935977,10,3,9,2,126
38.27647343381678,10,3,9,4,130
90.33107788975927,10,3,9,5,134
94.66339239101843,10,3,9,6,138
97.60260078880015,10,3,9,7,142
103.46564619851763,10,3,9,8,146
142.4730096630414,10,3,9,9,150
103.41099218165843,10,3,9,10,154
98.82420549518429,10,3,9,11,158
95.97270929367963,10,3,9,12,162
93.74443578031975,10,3,9,13,166
91.59878506268484,10,3,9,14,170
89.30671794177637,10,3,9,15,174
86.05723232610046,10,3,9,16,178
46.41223548933362,10,3,10,1,186
39.67859279528522,10,3,10,2,190
38.162410092747265,10,3,10,4,194
88.93376905898438,10,3,10,5,198
92.97375351862186,10,3,10,6,202
95.19586437660021,10,3,10,7,206
98.79701297705233,10,3,10,8,210
103.55914068519803,10,3,10,9,214
143.61356170834088,10,3,10,10,218
103.91597146830894,10,3,10,11,222
98.78591240999002,10,3,10,12,226
95.77222723114865,10,3,10,13,230
93.19269504078791,10,3,10,14,234
90.6744065599175,10,3,10,15,238
87.20604235741908,10,3,10,16,242
46.59343033806719,10,3,11,1,250
39.720889068310264,10,3,11,2,254
38.03445150473878,10,3,11,4,2
87.59055819376037,10,3,11,5,6
91.44531442995478,10,3,11,6,10
93.28860166393653,10,3,11,7,14
96.18514114518157,10,3,11,8,18
98.92523358336246,10,3,11,9,22
103.89125768557581,10,3,11,10,26
144.28527991065175,10,3,11,11,30
103.13378553764008,10,3,11,12,34
98.09410699759331,10,3,11,13,38
94.76798269655038,10,3,11,14,42
91.86954269617254,10,3,11,15,46
88.26783301290517,10,3,11,16,50
46.80873508983385,10,3,12,1,58
39.808918210081885,10,3,12,2,62
37.933831499208445,10,3,12,4,66
86.30884908892622,10,3,12,5,70
90.01697385437988,10,3,12,6,74
91.60011554058137,10,3,12,7,78
94.0996228807513,10,3,12,8,82
96.16018014839975,10,3,12,9,86
98.86888323534897,10,3,12,10,90
103.20474867403712,10,3,12,11,94
142.3893195580495,10,3,12,12,98
102.59494406028402,10,3,12,13,102
97.1541647397113,10,3,12,14,106
93.55349985080012,10,3,12,15,110
89.56671699690243,10,3,12,16,114
47.018131524029755,10,3,13,1,122
39.89951655157537,10,3,13,2,126
37.85383179803092,10,3,13,4,130
85.10576901956846,10,3,13,5,134
88.66097721951691,10,3,13,6,138
90.07115148817053,10,3,13,7,142
92.30324954834136,10,3,13,8,146
93.92506649751363,10,3,13,9,150
95.83981663309025,10,3,13,10,154
98.12614204439826,10,3,13,11,158
102.54029759072463,10,3,13,12,162
141.7412075301702,10,3,13,13,166
101.23522187113336,10,3,13,14,170
95.65405499718332,10,3,13,15,174
91.08980383645455,10,3,13,16,178
47.31978106218793,10,3,14,1,186
39.970455525970316,10,3,14,2,190
37.67640542313114,10,3,14,4,194
83.43331090780102,10,3,14,5,198
86.85353159985785,10,3,14,6,202
88.07765121848007,10,3,14,7,206
90.09659817585745,10,3,14,8,210
91.48645979531366,10,3,14,9,214
93.03234717715883,10,3,14,10,218
94.59823358907086,10,3,14,11,222
96.8886736206369,10,3,14,12,226
101.03638294637682,10,3,14,13,230
139.9572739932195,10,3,14,14,234
99.76050278935071,10,3,14,15,238
93.25823070558525,10,3,14,16,242
47.751999941803106,10,3,15,1,250
40.100009071731854,10,3,15,2,254
37.48445584029078,10,3,15,4,2
81.67902316965778,10,3,15,5,6
84.91379259347218,10,3,15,6,10
86.04627982786083,10,3,15,7,14
87.89787661571992,10,3,15,8,18
89.15332798260106,10,3,15,9,22
90.39060331762818,10,3,15,10,26
91.57340208837527,10,3,15,11,30
93.18187621561647,10,3,15,12,34
95.33638136343241,10,3,15,13,38
99.57293465271827,10,3,15,14,42
138.59463105778747,10,3,15,15,46
97.7964867227053,10,3,15,16,50
49.06941723839359,10,3,16,1,58
40.31228433126463,10,3,16,2,62
37.40516377726842,10,3,16,4,66
79.53258161552891,10,3,16,5,70
82.68805015787339,10,3,16,6,74
83.73753775770733,10,3,16,7,78
85.5666072879567,10,3,16,8,82
86.66209915744463,10,3,16,9,86
87.80498101673093,10,3,16,10,90
88.84204944410926,10,3,16,11,94
90.11781358083321,10,3,16,12,98
91.65931189637396,10,3,16,13,102
94.00613576757797,10,3,16,14,106
98.69113152847338,10,3,16,15,110
138.47473117750533,10,3,16,16,114
70.15556108633747,10,4,5,1,122
66.47461890648788,10,4,5,2,126
59.29015197090681,10,4,5,3,130
164.9638200841671,10,4,5,5,134
121.92852367399968,10,4,5,6,138
116.3851183529882,10,4,5,7,142
113.66982855363848,10,4,5,8,146
111.86965354361182,10,4,5,9,150
110.43115836189466,10,4,5,10,154
109.16154027649038,10,4,5,11,158
108.02935934942242,10,4,5,12,162
106.82862279444375,10,4,5,13,166
105.46317952705533,10,4,5,14,170
103.88500758505012,10,4,5,15,174
101.80049404019928,10,4,5,16,178
71.96306855179432,10,4,6,1,186
68.09961690729993,10,4,6,2,190
60.56620838490191,10,4,6,3,194
122.30132089464506,10,4,6,5,198
165.04712458243105,10,4,6,6,202
123.82007529549695,10,4,6,7,206
119.34635428068933,10,4,6,8,210
116.97319711802791,10,4,6,9,214
115.19028448873853,10,4,6,10,218
113.71770416697865,10,4,6,11,222
112.36644696762673,10,4,6,12,226
111.00585448854642,10,4,6,13,230
109.49361986850519,10,4,6,14,234
107.75594228714225,10,4,6,15,238
105.4535318067224,10,4,6,16,242
72.65565844581353,10,4,7,1,250
68.71829736721702,10,4,7,2,254
61.0649949636101,10,4,7,3,2
116.17951671110349,10,4,7,5,6
123.4897373464785,10,4,7,6,10
166.0007229692686,10,4,7,7,14
124.78518078064917,10,4,7,8,18
120.45763108246382,10,4,7,9,22
117.96089178624221,10,4,7,10,26
116.12037843201843,10,4,7,11,30
114.53715859658261,10,4,7,12,34
112.98451680853267,10,4,7,13,38
111.3666448848873,10,4,7,14,42
109.51498188497389,10,4,7,15,46
107.18378799802446,10,4,7,16,50
73.02279476916068,10,4,8,1,58
69.03961693975272,10,4,8,2,62
61.237843988429276,10,4,8,3,66
113.2429902000293,10,4,8,5,70
118.87463549529558,10,4,8,6,74
124.67040117645242,10,4,8,7,78
166.65080544241638,10,4,8,8,82
125.9944207421304,10,4,8,9,86
121.21940697620813,10,4,8,10,90
118.6669465158442,10,4,8,11,94
116.67441200985472,10,4,8,12,98
114.92147710583338,10,4,8,13,102
113.15175851805763,10,4,8,14,106
111.2006995042761,10,4,8,15,110
108.6757414091694,10,4,8,16,114
73.31811682364773,10,4,9,1,122
69.18508953237408,10,4,9,2,126
61.28371907996334,10,4,9,3,130
111.60524209177787,10,4,9,5,134
116.71800021653499,10,4,9,6,138
120.46660641421623,10,4,9,7,142
126.05582426468456,10,4,9,8,146
165.09723127160862,10,4,9,9,150
126.19125206437619,10,4,9,10,154
121.62213335447935,10,4,9,11,158
118.84934151052951,10,4,9,12,162
116.74678561911878,10,4,9,13,166
114.61942096423407,10,4,9,14,170
112.4843506681957,10,4,9,15,174
109.84509830980107,10,4,9,16,178
73.74831606114446,10,4,10,1,186
69.51867821755094,10,4,10,2,190
61.57955164579422,10,4,10,3,194
109.98544378904927,10,4,10,5,198
114.78283472145334,10,4,10,6,202
117.85791336040366,10,4,10,7,206
121.20364165066454,10,4,10,8,210
126.07221916030228,10,4,10,9,214
166.30474108966783,10,4,10,10,218
126.63908510567344,10,4,10,11,222
121.5847486538187,10,4,10,12,226
118.68597841872887,10,4,10,13,230
116.18913014303801,10,4,10,14,234
113.8557870495288,10,4,10,15,238
111.08493544752746,10,4,10,16,242
74.0443417351533,10,4,11,1,250
69.70191825422506,10,4,11,2,254
61.68617743121331,10,4,11,3,2
108.91637808216802,10,4,11,5,6
113.54149800117943,10,4,11,6,10
116.25749676721856,10,4,11,7,14
118.89560286199404,10,4,11,8,18
121.79229552137751,10,4,11,9,22
126.91710188688101,10,4,11,10,26
167.51483645887342,10,4,11,11,30
126.38418301401983,10,4,11,12,34
121.4426816408026,10,4,11,13,38
118.26944612086174,10,4,11,14,42
115.50014603119668,10,4,11,15,46
112.54229903230998,10,4,11,16,50
74.24613287545954,10,4,12,1,58
69.73136638231095,10,4,12,2,62
61.634471418851824,10,4,12,3,66
107.88980787248315,10,4,12,5,70
112.37907208751461,10,4,12,6,74
114.80358591196868,10,4,12,7,78
116.9884112607365,10,4,12,8,82
119.12558444029457,10,4,12,9,86
121.90437837991836,10,4,12,10,90
126.3808956213705,10,4,12,11,94
165.73154208864443,10,4,12,12,98
125.9198967739322,10,4,12,13,102
120.54332207639648,10,4,12,14,106
117.14074648542007,10,4,12,15,110
113.8445317522866,10,4,12,16,114
74.58854731122572,10,4,13,1,122
69.99775647664626,10,4,13,2,126
61.80622455862541,10,4,13,3,130
106.69542023010115,10,4,13,5,134
111.02029248762045,10,4,13,6,138
113.2982629693958,10,4,13,7,142
115.18994018277841,10,4,13,8,146
116.93875046370515,10,4,13,9,150
118.95238780388603,10,4,13,10,154
121.36363337542471,10,4,13,11,158
125.84804538262645,10,4,13,12,162
165.13508962477462,10,4,13,13,166
124.74516978249154,10,4,13,14,170
119.29666940317469,10,4,13,15,174
115.42232918999825,10,4,13,16,178
75.02169436004081,10,4,14,1,186
70.24108166991265,10,4,14,2,190
61.935370756274594,10,4,14,3,194
105.1568582538477,10,4,14,5,198
109.32759006459095,10,4,14,6,202
111.47810938798833,10,4,14,7,206
113.18829528824581,10,4,14,8,210
114.68011730167221,10,4,14,9,214
116.30515632232066,10,4,14,10,218
118.05782544877809,10,4,14,11,222
120.38124156250937,10,4,14,12,226
124.6357698705871,10,4,14,13,230
163.72507908502013,10,4,14,14,234
123.57029504747663,10,4,14,15,238
117.783792432846,10,4,14,16,242
75.62772252884244,10,4,15,1,250
70.46310462751069,10,4,15,2,254
62.05936613663003,10,4,15,3,2
103.63648224451855,10,4,15,5,6
107.69817987529466,10,4,15,6,10
109.74897219161487,10,4,15,7,14
111.34295000439401,10,4,15,8,18
112.66149202382081,10,4,15,9,22
114.05796064424337,10,4,15,10,26
115.41853227413442,10,4,15,11,30
117.07377194267961,10,4,15,12,34
119.37435407283542,10,4,15,13,38
123.71664943063128,10,4,15,14,42
162.92615799478472,10,4,15,15,46
122.76020696668924,10,4,15,16,50
77.07879562872722,10,4,16,1,58
70.75404365005963,10,4,16,2,62
62.10417159327453,10,4,16,3,66
101.7122324297151,10,4,16,5,70
105.62944052341234,10,4,16,6,74
107.52758860167636,10,4,16,7,78
108.99889115381217,10,4,16,8,82
110.18423829134554,10,4,16,9,86
111.3829064047399,10,4,16,10,90
112.48834714150159,10,4,16,11,94
113.88682828984517,10,4,16,12,98
115.51378976778905,10,4,16,13,102
117.9093193280908,10,4,16,14,106
122.69117721844523,10,4,16,15,110
162.87288432470137,10,4,16,16,114
43.0930672120308,10,5,6,1,122
42.894439649128714,10,5,6,2,126
42.63015673730776,10,5,6,3,130
41.280716071274114,10,5,6,4,134
84.17506212066017,10,5,6,6,138
48.559648882073425,10,5,6,7,142
46.8286432002464,10,5,6,8,146
46.40968105195582,10,5,6,9,150
46.10198615755904,10,5,6,10,154
45.917759242626836,10,5,6,11,158
45.70558203218496,10,5,6,12,162
45.586758461978945,10,5,6,13,166
45.442111568332045,10,5,6,14,170
45.362093384844826,10,5,6,15,174
45.150755491458284,10,5,6,16,178
49.253778634304254,10,5,7,1,186
48.92694575712907,10,5,7,2,190
48.53932706922041,10,5,7,3,194
46.79618570466087,10,5,7,4,198
48.47719083044262,10,5,7,6,202
96.98268064357315,10,5,7,7,206
58.13184661676109,10,5,7,8,210
55.701634787397396,10,5,7,9,214
54.70906800750782,10,5,7,10,218
54.1497193902357,10,5,7,11,222
53.70250873603289,10,5,7,12,226
53.445057280494794,10,5,7,13,230
53.14419330439272,10,5,7,14,234
52.95904283273581,10,5,7,15,238
52.65565106418788,10,5,7,16,242
52.48604178207996,10,5,8,1,250
52.01283241240416,10,5,8,2,254
51.5362443970002,10,5,8,3,2
49.57703594042315,10,5,8,4,6
46.77049903446054,10,5,8,6,10
58.11697614574935,10,5,8,7,14
102.83530242873898,10,5,8,8,18
64.02113466595631,10,5,8,9,22
60.71071107009432,10,5,8,10,26
59.49354482628913,10,5,8,11,30
58.654649796767714,10,5,8,12,34
58.06237379747136,10,5,8,13,38
57.625461641491626,10,5,8,14,42
57.277455371269966,10,5,8,15,46
56.84425152891808,10,5,8,16,50
54.62780580207422,10,5,9,1,58
54.035575965987285,10,5,9,2,62
53.51661754912473,10,5,9,3,66
51.41050703912197,10,5,9,4,70
46.2080415117938,10,5,9,6,74
55.611776109785815,10,5,9,7,78
63.93910564451065,10,5,9,8,82
104.8345579684614,10,5,9,9,86
67.3986637484098,10,5,9,10,90
64.12724506168054,10,5,9,11,94
62.54727903109721,10,5,9,12,98
61.637428554189185,10,5,9,13,102
60.89183639359454,10,5,9,14,106
60.37628345230236,10,5,9,15,110
59.85862464262104,10,5,9,16,114
56.399379478086196,10,5,10,1,122
55.7531819005216,10,5,10,2,126
55.14475933329542,10,5,10,3,130
52.92264303596608,10,5,10,4,134
45.9251071685373,10,5,10,6,138
54.58772194067444,10,5,10,7,142
60.65270284895681,10,5,10,8,146
67.41434527451553,10,5,10,9,150
109.11892006785682,10,5,10,10,154
70.75612676373427,10,5,10,11,158
66.85749348528313,10,5,10,12,162
65.16015013778168,10,5,10,13,166
64.07469126523968,10,5,10,14,170
63.28877794009483,10,5,10,15,174
62.58963057662072,10,5,10,16,178
57.98227703228781,10,5,11,1,186
57.21765179033053,10,5,11,2,190
56.49329970320863,10,5,11,3,194
54.1705724783635,10,5,11,4,198
45.76932171695496,10,5,11,6,202
54.07727185810866,10,5,11,7,206
59.40996351467351,10,5,11,8,210
64.17626566503488,10,5,11,9,214
70.76536316358045,10,5,11,10,218
112.57777189450867,10,5,11,11,222
72.64750370434047,10,5,11,12,226
68.9005274435226,10,5,11,13,230
67.07106887767803,10,5,11,14,234
65.93984342397921,10,5,11,15,238
65.0282815711017,10,5,11,16,242
59.528099915312715,10,5,12,1,250
58.66697362348122,10,5,12,2,254
57.8887006765336,10,5,12,3,2
55.4331463845681,10,5,12,4,6
45.641910309757534,10,5,12,6,10
53.7405477255606,10,5,12,7,14
58.63164445569939,10,5,12,8,18
62.68401893376916,10,5,12,9,22
66.93001502726914,10,5,12,10,26
72.69681489348625,10,5,12,11,30
113.24768203061478,10,5,12,12,34
74.62707689362705,10,5,12,13,38
70.64899840406781,10,5,12,14,42
68.82520665556562,10,5,12,15,46
67.64100217931731,10,5,12,16,50
61.08228915807918,10,5,13,1,58
60.07038900123346,10,5,13,2,62
59.21341341674424,10,5,13,3,66
56.681276579105436,10,5,13,4,70
45.53231744176836,10,5,13,6,74
53.446060005674425,10,5,13,7,78
58.07297224032482,10,5,13,8,82
61.74654624305206,10,5,13,9,86
65.24564296676093,10,5,13,10,90
68.9594774638546,10,5,13,11,94
74.63362127518015,10,5,13,12,98
115.12939745530198,10,5,13,13,102
76.1214632211566,10,5,13,14,106
72.28744676934024,10,5,13,15,110
70.4516183577648,10,5,13,16,114
62.82727835884002,10,5,14,1,122
61.62108446410165,10,5,14,2,126
60.663437452973426,10,5,14,3,130
58.00120724722648,10,5,14,4,134
45.39394386565103,10,5,14,6,138
53.14989681765742,10,5,14,7,142
57.64021854384919,10,5,14,8,146
61.026000735083684,10,5,14,9,150
64.12784219010398,10,5,14,10,154
67.08660351031283,10,5,14,11,158
70.64026006545085,10,5,14,12,162
76.09137675929182,10,5,14,13,166
116.4700771487727,10,5,14,14,170
77.97448001440257,10,5,14,15,174
74.2596787135548,10,5,14,16,178
65.02462290266926,10,5,15,1,186
63.46449284835575,10,5,15,2,190
62.34102499680872,10,5,15,3,194
59.59264038904667,10,5,15,4,198
45.24662793528978,10,5,15,6,202
52.894082583347725,10,5,15,7,206
57.23154766082348,10,5,15,8,210
60.42772370868001,10,5,15,9,214
63.31005585450979,10,5,15,10,218
65.88467271364175,10,5,15,11,222
68.77059086995145,10,5,15,12,226
72.21945243049113,10,5,15,13,230
77.9496720436513,10,5,15,14,234
118.64527386085365,10,5,15,15,238
80.61596044394474,10,5,15,16,242
68.55794984101763,10,5,16,1,250
65.8532095263381,10,5,16,2,254
