BIOZ1_TOMO,EXC_FREQ_KHZ,GND_OUTPUT,EXC_OUTPUT,SENSE_OUTPUT,PACKET_NUMBER
47.98092746327272,10,2,6,16,237
44.2025722528078,10,2,7,1,242
46.22042550414958,10,2,7,3,246
52.47997976375936,10,2,7,4,250
57.0578108148833,10,2,7,5,254
64.22791554221838,10,2,7,6,2
112.02450717316468,10,2,7,7,6
65.52845171526977,10,2,7,8,10
61.12760177691647,10,2,7,9,14
59.3503846850388,10,2,7,10,18
57.65396074806247,10,2,7,11,22
56.15560810823626,10,2,7,12,26
54.84820381245109,10,2,7,13,30
53.36389923062413,10,2,7,14,34
51.42580504202472,10,2,7,15,38
48.68209602635043,10,2,7,16,42
44.59657088417715,10,2,8,1,50
45.987472038293404,10,2,8,3,54
51.527395619938886,10,2,8,4,58
55.317534235621764,10,2,8,5,62
59.95584268612954,10,2,8,6,66
65.59080388915477,10,2,8,7,70
113.64325359160576,10,2,8,8,74
67.49443291738169,10,2,8,9,78
62.53532874170683,10,2,8,10,82
59.96780405396211,10,2,8,11,86
57.914402812212955,10,2,8,12,90
56.23984596418214,10,2,8,13,94
54.50358935684752,10,2,8,14,98
52.49357101099763,10,2,8,15,102
49.48206479107554,10,2,8,16,106
44.82400697682171,10,2,9,1,114
45.751645009098695,10,2,9,3,118
50.90599190891985,10,2,9,4,122
54.179206613030885,10,2,9,5,126
57.941955097867606,10,2,9,6,130
61.12256992525154,10,2,9,7,134
67.38754364411555,10,2,9,8,138
111.96259920737215,10,2,9,9,142
67.68261946992152,10,2,9,10,146
62.79112099702247,10,2,9,11,150
59.907197247453624,10,2,9,12,154
57.68630320391139,10,2,9,13,158
55.59989935302101,10,2,9,14,162
53.26427954068625,10,2,9,15,166
49.951845522214015,10,2,9,16,170
45.094835708758126,10,2,10,1,178
45.45575754334857,10,2,10,3,182
50.30292221162332,10,2,10,4,186
53.21535582409733,10,2,10,5,190
56.50487346977127,10,2,10,6,194
58.68869936283287,10,2,10,7,198
62.05912428011602,10,2,10,8,202
67.44169946739306,10,2,10,9,206
113.30306264916283,10,2,10,10,210
68.12877708110811,10,2,10,11,214
62.57407204275328,10,2,10,12,218
59.438766949760144,10,2,10,13,222
56.770902572824646,10,2,10,14,226
54.10604597186228,10,2,10,15,230
50.34360827891449,10,2,10,16,234
45.36653504937959,10,2,11,1,242
45.19071165386727,10,2,11,3,246
49.78018347001573,10,2,11,4,250
52.4444758775721,10,2,11,5,254
55.33347887705474,10,2,11,6,2
57.044022895900504,10,2,11,7,6
59.35467253175291,10,2,11,8,10
62.474715260657895,10,2,11,9,14
68.13879437488643,10,2,11,10,18
114.28643209118832,10,2,11,11,22
67.21109271423471,10,2,11,12,26
61.7094849187616,10,2,11,13,30
58.1701571131607,10,2,11,14,34
54.988802172433005,10,2,11,15,38
50.880256844781755,10,2,11,16,42
45.66465569062193,10,2,12,1,50
44.91985416475657,10,2,12,3,54
49.25363017667312,10,2,12,4,58
51.65141733287189,10,2,12,5,62
54.27133091226274,10,2,12,6,66
55.583813218336964,10,2,12,7,70
57.33679309202097,10,2,12,8,74
59.537578421956496,10,2,12,9,78
62.57112886950347,10,2,12,10,82
67.19805058022918,10,2,12,11,86
111.99787540360134,10,2,12,12,90
66.2423838154214,10,2,12,13,94
60.2120366769703,10,2,12,14,98
56.143512577853194,10,2,12,15,102
51.55871984764509,10,2,12,16,106
46.003265948989316,10,2,13,1,114
44.61224662021639,10,2,13,3,118
48.67980633997164,10,2,13,4,122
50.90599190891985,10,2,13,5,126
53.14401008891793,10,2,13,6,130
54.17825079896807,10,2,13,7,134
55.583813218336964,10,2,13,8,138
57.257119335113856,10,2,13,9,142
59.42898068659936,10,2,13,10,146
61.656581332020394,10,2,13,11,150
66.2380994829348,10,2,13,12,154
111.20833882738665,10,2,13,13,158
64.317536293205,10,2,13,14,162
57.849272957131575,10,2,13,15,166
52.5226685613233,10,2,13,16,170
46.523409169499686,10,2,14,1,178
44.2563998249535,10,2,14,3,182
48.007157254219976,10,2,14,4,186
49.981933516330194,10,2,14,5,190
51.95466609121547,10,2,14,6,194
52.7366914710605,10,2,14,7,198
53.81970142483875,10,2,14,8,202
55.015393811557296,10,2,14,9,206
56.764640111230975,10,2,14,10,210
58.15585281734885,10,2,14,11,214
60.15558039548598,10,2,14,12,218
64.30279088063372,10,2,14,13,222
108.36099075121349,10,2,14,14,226
61.73218640866784,10,2,14,15,230
53.964264836928,10,2,14,16,234
47.38465420649142,10,2,15,1,242
43.72634779337528,10,2,15,3,246
47.172724257228616,10,2,15,4,250
48.82739357533821,10,2,15,5,254
50.52240615952667,10,2,15,6,2
51.06227564211042,10,2,15,7,6
51.847051644465296,10,2,15,8,10
52.629480904297814,10,2,15,9,14
54.121114105538574,10,2,15,10,18
55.01284008998161,10,2,15,11,22
56.160737072336644,10,2,15,12,26
57.912670999125105,10,2,15,13,30
61.789685527806114,10,2,15,14,34
105.28570137326469,10,2,15,15,38
57.35320080222789,10,2,15,16,42
49.87371620005903,10,2,16,1,50
42.85782925639194,10,2,16,3,54
45.75606457997345,10,2,16,4,58
47.05625500111143,10,2,16,5,62
48.4164817178993,10,2,16,6,66
48.721822238670846,10,2,16,7,70
49.290996090161435,10,2,16,8,74
49.76755454230813,10,2,16,9,78
50.99832870790797,10,2,16,10,82
51.514558389084605,10,2,16,11,86
52.070551053901944,10,2,16,12,90
53.05339494901822,10,2,16,13,94
54.42676771543793,10,2,16,14,98
57.66982180749934,10,2,16,15,102
99.98506508496196,10,2,16,16,106
42.8069150055309,10,3,4,1,114
40.88931065086676,10,3,4,2,118
93.65736536990683,10,3,4,4,122
50.83654502068925,10,3,4,5,126
47.95304398123073,10,3,4,6,130
46.99865907859386,10,3,4,7,134
46.69543640828646,10,3,4,8,138
46.5623449426058,10,3,4,9,142
46.272649724527255,10,3,4,10,146
45.91458345654152,10,3,4,11,150
45.209648484530504,10,3,4,12,154
45.383377379945316,10,3,4,13,158
45.27760555554968,10,3,4,14,162
44.96279518620454,10,3,4,15,166
44.26193031131103,10,3,4,16,170
45.976862013468136,10,3,5,1,178
43.25562751423778,10,3,5,2,182
50.81658147801824,10,3,5,4,186
98.89988588740435,10,3,5,5,190
57.092845913065865,10,3,5,6,194
53.876828738759585,10,3,5,7,198
52.94633974788981,10,3,5,8,202
52.19349890086314,10,3,5,9,206
51.495540671646836,10,3,5,10,210
50.90890491241071,10,3,5,11,214
49.90682222259087,10,3,5,12,218
49.86783431519945,10,3,5,13,222
49.4811217970188,10,3,5,14,226
48.88931925258971,10,3,5,15,230
47.94938604280532,10,3,5,16,234
47.4604784953566,10,3,6,1,242
44.141699189140205,10,3,6,2,246
47.96945269992082,10,3,6,4,250
57.133781252346004,10,3,6,5,254
107.12384939581425,10,3,6,6,2
61.37215679535601,10,3,6,7,6
58.11272285698093,10,3,6,8,10
56.49808073862979,10,3,6,9,14
55.187039089507515,10,3,6,10,18
54.18059279289962,10,3,6,11,22
52.91237820185901,10,3,6,12,26
52.61722701095772,10,3,6,13,30
51.92976938971325,10,3,6,14,34
51.09460567598566,10,3,6,15,38
49.86716887343455,10,3,6,16,42
48.409262903577805,10,3,7,1,50
44.75344471164603,10,3,7,2,54
47.0305514999046,10,3,7,4,58
53.843629133979086,10,3,7,5,62
61.630282557489636,10,3,7,6,66
110.31785630031408,10,3,7,7,70
64.75689399051114,10,3,7,8,74
60.653621070622066,10,3,7,9,78
58.52997999474211,10,3,7,10,82
57.08599212665125,10,3,7,11,86
55.71176012536244,10,3,7,12,90
54.78465659806729,10,3,7,13,94
53.78780095379592,10,3,7,14,98
52.60802500777116,10,3,7,15,102
51.005742670399876,10,3,7,16,106
49.14568287028164,10,3,8,1,114
45.09567364521732,10,3,8,2,118
46.48596155024006,10,3,8,4,122
52.49661363786967,10,3,8,5,126
57.56086383902538,10,3,8,6,130
64.29816936942817,10,3,8,7,134
112.8112248930913,10,3,8,8,138
67.04440942555775,10,3,8,9,142
62.063153700533455,10,3,8,10,146
59.66481220943061,10,3,8,11,150
57.44154870567014,10,3,8,12,154
56.435533855484515,10,3,8,13,158
55.1758807229585,10,3,8,14,162
53.82450419967336,10,3,8,15,166
52.092514172154814,10,3,8,16,170
49.6970082120361,10,3,9,1,178
45.28705882890258,10,3,9,2,182
46.08383124926636,10,3,9,4,186
51.6179123893871,10,3,9,5,190
55.80448836529568,10,3,9,6,194
60.13710763250102,10,3,9,7,198
67.04007348035117,10,3,9,8,202
111.67755626032478,10,3,9,9,206
67.51714019841017,10,3,9,10,210
62.782821444547714,10,3,9,11,214
59.73683164854084,10,3,9,12,218
58.21577319709806,10,3,9,13,222
56.57305586801617,10,3,9,14,226
54.906348985097786,10,3,9,15,230
52.86821797555268,10,3,9,16,234
50.220088255443734,10,3,10,1,242
45.60129190005183,10,3,10,2,246
45.72976982773516,10,3,10,4,250
50.9620593552296,10,3,10,5,254
54.65013145420146,10,3,10,6,2
57.923376046568784,10,3,10,7,6
62.17712895475414,10,3,10,8,10
67.58313858444382,10,3,10,9,14
113.43976104218045,10,3,10,10,18
68.4459753311663,10,3,10,11,22
62.88272029238648,10,3,10,12,26
60.22913883440978,10,3,10,13,30
58.05105340042166,10,3,10,14,34
55.97190302734233,10,3,10,15,38
53.68302532329306,10,3,10,16,42
50.72202823019156,10,3,11,1,50
45.818992256113205,10,3,11,2,54
45.47652444029044,10,3,11,4,58
50.40476072425094,10,3,11,5,62
53.69065689186996,10,3,11,6,66
56.49084748842591,10,3,11,7,70
59.83097097279393,10,3,11,8,74
62.90214817495422,10,3,11,9,78
68.454831534854,10,3,11,10,82
114.87565954907633,10,3,11,11,86
67.87741047122495,10,3,11,12,90
62.785731538886466,10,3,11,13,94
59.72107070973808,10,3,11,14,98
57.123498052257055,10,3,11,15,102
54.4896604620769,10,3,11,16,106
51.283452623421184,10,3,12,1,114
46.080256220668986,10,3,12,2,118
45.19974691550703,10,3,12,4,122
49.87975654237234,10,3,12,5,126
52.90002342348464,10,3,12,6,130
55.30303863988149,10,3,12,7,134
58.112622842377405,10,3,12,8,138
60.282122408302016,10,3,12,9,142
63.169984032745326,10,3,12,10,146
68.00861021004327,10,3,12,11,150
113.1437756921605,10,3,12,12,154
67.61225533280762,10,3,12,13,158
62.02223921567889,10,3,12,14,162
58.54615696672835,10,3,12,15,166
55.392380291927914,10,3,12,16,170
51.933603693789294,10,3,13,1,178
46.38575124414837,10,3,13,2,182
44.954088746307875,10,3,13,4,186
49.402789213333214,10,3,13,5,190
52.12255312887278,10,3,13,6,194
54.216339662509256,10,3,13,7,198
56.668152480557936,10,3,13,8,202
58.3643901969453,10,3,13,9,206
60.28602210802982,10,3,13,10,210
62.777608277026566,10,3,13,11,214
67.43003266774117,10,3,13,12,218
112.91326825490772,10,3,13,13,222
66.3916847771873,10,3,13,14,226
60.56431328242778,10,3,13,15,230
56.54530997877932,10,3,13,16,234
52.801345313339304,10,3,14,1,242
46.771211554263495,10,3,14,2,246
44.64072896933388,10,3,14,4,250
48.86324139685304,10,3,14,5,254
51.31412183961835,10,3,14,6,2
53.118448137681895,10,3,14,7,6
55.26607469049795,10,3,14,8,10
56.6031150766393,10,3,14,9,14
57.99428764011907,10,3,14,10,18
59.57101581520208,10,3,14,11,22
61.59955353862759,10,3,14,12,26
66.32591814460093,10,3,14,13,30
110.85575693182997,10,3,14,14,34
64.77535533552488,10,3,14,15,38
58.309551495439585,10,3,14,16,42
54.193392551169076,10,3,15,1,50
47.240171866174194,10,3,15,2,54
44.275595828642395,10,3,15,4,58
48.20627093767387,10,3,15,5,62
50.40513456561264,10,3,15,6,66
51.96802280420561,10,3,15,7,70
53.76097214903163,10,3,15,8,74
54.85696447817385,10,3,15,9,78
55.84935050048748,10,3,15,10,82
56.90048243250904,10,3,15,11,86
57.90634983502449,10,3,15,12,90
60.42059327086014,10,3,15,13,94
64.80561380290887,10,3,15,14,98
108.91293874969048,10,3,15,15,102
62.1295533535785,10,3,15,16,106
57.565100291247695,10,3,16,1,114
48.10180713709105,10,3,16,2,118
43.78397566998541,10,3,16,4,122
47.35647434512138,10,3,16,5,126
49.19614273045929,10,3,16,6,130
50.506995318629926,10,3,16,7,134
52.08320590290014,10,3,16,8,138
52.87774441636113,10,3,16,9,142
53.51306083046444,10,3,16,10,146
54.205982417763856,10,3,16,11,150
54.73109191427409,10,3,16,12,154
56.33707597957828,10,3,16,13,158
58.2800833356876,10,3,16,14,162
62.112392091322604,10,3,16,15,166
105.33925235869091,10,3,16,16,170
44.733908829907854,10,4,5,1,178
43.79432054130203,10,4,5,2,182
41.54016336233221,10,4,5,3,186
89.8252708218839,10,4,5,5,190
50.65438245600324,10,4,5,6,194
48.358890202204606,10,4,5,7,198
47.595594014449084,10,4,5,8,202
47.121858177389434,10,4,5,9,206
46.667775310492715,10,4,5,10,210
46.418387399842004,10,4,5,11,214
46.19625862070089,10,4,5,12,218
45.92907963500224,10,4,5,13,222
45.719628721233086,10,4,5,14,226
45.45463815952119,10,4,5,15,230
45.155098950479235,10,4,5,16,234
49.04023100750643,10,4,6,1,242
47.56287299606627,10,4,6,2,246
44.37892333165836,10,4,6,3,250
50.62649385818492,10,4,6,5,254
102.96109891138182,10,4,6,6,2
58.651082323168154,10,4,6,7,6
55.49268117066588,10,4,6,8,10
54.18473825872459,10,4,6,9,14
53.164473656570614,10,4,6,10,18
52.57201360139719,10,4,6,11,22
52.00255011810165,10,4,6,12,26
51.52799908686043,10,4,6,13,30
50.99784436046815,10,4,6,14,34
50.483203762523914,10,4,6,15,38
49.875542724955814,10,4,6,16,42
50.93021438746342,10,4,7,1,50
49.054090001684145,10,4,7,2,54
45.35321259679732,10,4,7,3,58
48.301368433880754,10,4,7,5,62
58.682455083702834,10,4,7,6,66
108.59419329232294,10,4,7,7,70
63.143605499755935,10,4,7,8,74
59.399203150273145,10,4,7,9,78
57.42615860622953,10,4,7,10,82
56.24974368616128,10,4,7,11,86
55.336245929551026,10,4,7,12,90
54.52041332244465,10,4,7,13,94
53.72249865558546,10,4,7,14,98
52.98189277125543,10,4,7,15,102
52.0841904548813,10,4,7,16,106
52.20721643811798,10,4,8,1,114
49.99627815713394,10,4,8,2,118
45.896073076540695,10,4,8,3,122
47.490438887535475,10,4,8,5,126
55.4455988974391,10,4,8,6,130
63.106415518202574,10,4,8,7,134
111.52724668680038,10,4,8,8,138
66.21818008997779,10,4,8,9,142
61.58554233726733,10,4,8,10,146
59.53002790294126,10,4,8,11,150
58.10530293903559,10,4,8,12,154
56.87016745835826,10,4,8,13,158
55.74984452783895,10,4,8,14,162
54.74307466804936,10,4,8,15,166
53.580048881693735,10,4,8,16,170
53.087148879113144,10,4,9,1,178
50.63958746877393,10,4,9,2,182
46.23538809262442,10,4,9,3,186
47.01790233207944,10,4,9,5,190
54.131146404126135,10,4,9,6,194
59.304549529494906,10,4,9,7,198
66.21389753359678,10,4,9,8,202
111.17388104371179,10,4,9,9,206
67.32477835775782,10,4,9,10,210
62.97394858847412,10,4,9,11,214
60.66743380529397,10,4,9,12,218
58.9203549951134,10,4,9,13,222
57.477704612678636,10,4,9,14,226
56.18192019595098,10,4,9,15,230
54.75394567461426,10,4,9,16,234
53.9743052764123,10,4,10,1,242
51.207209108323866,10,4,10,2,246
46.55219067274911,10,4,10,3,250
46.669802391253924,10,4,10,5,254
53.2163708793539,10,4,10,6,2
57.45418861470623,10,4,10,7,6
61.655060516183866,10,4,10,8,10
67.45146474122741,10,4,10,9,14
113.62410256929707,10,4,10,10,18
68.88002281888528,10,4,10,11,22
63.91474778066963,10,4,10,12,26
61.29305723996076,10,4,10,13,30
59.28150773223986,10,4,10,14,34
57.62607002147009,10,4,10,15,38
55.89313415640446,10,4,10,16,42
54.68753962424151,10,4,11,1,50
51.747973307204354,10,4,11,2,54
46.82693877406137,10,4,11,3,58
46.37639077623673,10,4,11,5,62
52.58559348831028,10,4,11,6,66
56.30246510012645,10,4,11,7,70
59.61658603216999,10,4,11,8,74
63.09365310784869,10,4,11,9,78
68.85951163082837,10,4,11,10,82
115.64260884011713,10,4,11,11,86
69.06669764457563,10,4,11,12,90
64.0862796070725,10,4,11,13,94
61.173518442283054,10,4,11,14,98
59.04220097371905,10,4,11,15,102
56.95163841453407,10,4,11,16,106
55.557633056668195,10,4,12,1,114
52.27451750776712,10,4,12,2,118
47.088784827992825,10,4,12,3,122
46.16172987789737,10,4,12,5,126
52.01293593304101,10,4,12,6,130
55.371396274697894,10,4,12,7,134
58.12512502582164,10,4,12,8,138
60.73257779239358,10,4,12,9,142
63.87174310731679,10,4,12,10,146
69.00881641188938,10,4,12,11,150
114.42983090607272,10,4,12,12,154
69.1368697415725,10,4,12,13,158
63.73810078834596,10,4,12,14,162
60.745663909451444,10,4,12,15,166
58.12512502582164,10,4,12,16,170
56.470694308504,10,4,13,1,178
52.84374070194412,10,4,13,2,182
47.39204200171221,10,4,13,3,186
45.938221013209635,10,4,13,5,190
51.536870146244425,10,4,13,6,194
54.59440424927808,10,4,13,7,198
57.0033448088959,10,4,13,8,202
59.08163142516207,10,4,13,9,206
61.30603614849788,10,4,13,10,210
64.04677555662316,10,4,13,11,214
69.1596762366492,10,4,13,12,218
114.72527160682515,10,4,13,13,222
68.4586630472616,10,4,13,14,226
63.01468611759494,10,4,13,15,230
59.55909145919451,10,4,13,16,234
57.64509173950518,10,4,14,1,242
53.487257669083384,10,4,14,2,246
47.693898174804524,10,4,14,3,250
45.682293443656185,10,4,14,5,254
51.01494407135775,10,4,14,6,2
53.80693825308785,10,4,14,7,6
55.85836417985394,10,4,14,8,10
57.59140754420651,10,4,14,9,14
59.28917896008347,10,4,14,10,18
61.205061795600734,10,4,14,11,22
63.82699246696642,10,4,14,12,26
68.39960062851426,10,4,14,13,30
113.23731160443945,10,4,14,14,34
67.57442414310944,10,4,14,15,38
61.60365191740122,10,4,14,16,42
59.423304751474674,10,4,15,1,50
54.357267245309934,10,4,15,2,54
48.08724770753666,10,4,15,3,58
45.41158286874632,10,4,15,5,62
50.463106017716775,10,4,15,6,66
53.00432458070686,10,4,15,7,70
54.80842603809698,10,4,15,8,74
56.23318862086624,10,4,15,9,78
57.54726639537595,10,4,15,10,82
58.97225023031696,10,4,15,11,86
60.73387554315335,10,4,15,12,90
62.94780137417337,10,4,15,13,94
67.47152628565145,10,4,15,14,98
111.9515971957025,10,4,15,15,102
65.7769637467045,10,4,15,16,106
63.287198413471764,10,4,16,1,114
55.76765881854829,10,4,16,2,118
48.58880385513313,10,4,16,3,122
45.059716129798424,10,4,16,5,126
49.80498823053107,10,4,16,6,130
52.04137869068474,10,4,16,7,134
53.576583676520144,10,4,16,8,138
54.778880188265425,10,4,16,9,142
55.78559983273778,10,4,16,10,146
56.83446131272298,10,4,16,11,150
58.06215171440661,10,4,16,12,154
59.43595321443889,10,4,16,13,158
61.487469148779105,10,4,16,14,162
65.7235419801158,10,4,16,15,166
109.47898031258666,10,4,16,16,170
41.80661887979809,10,5,6,1,178
41.344266779794744,10,5,6,2,182
40.365732160452666,10,5,6,3,186
37.53792780869223,10,5,6,4,190
89.78621244277815,10,5,6,6,194
47.86148731510395,10,5,6,7,198
45.42673944951429,10,5,6,8,202
44.55345671176514,10,5,6,9,206
44.0776061920364,10,5,6,10,210
43.69514354760429,10,5,6,11,214
43.39316795145079,10,5,6,12,218
43.12671855684881,10,5,6,13,222
42.877753378731114,10,5,6,14,226
42.56104627346938,10,5,6,15,230
42.20399872334709,10,5,6,16,234
45.98679075272161,10,5,7,1,242
45.17013127342626,10,5,7,2,246
43.593288268330646,10,5,7,3,250
39.83540482798045,10,5,7,4,254
47.90730309066948,10,5,7,6,2
100.09651506431413,10,5,7,7,6
55.41256282859516,10,5,7,8,10
52.102636765396255,10,5,7,9,14
50.63352670384608,10,5,7,10,18
49.76328640020435,10,5,7,11,22
49.061837605751954,10,5,7,12,26
48.490463352297894,10,5,7,13,30
47.921397899085,10,5,7,14,34
47.35539560740648,10,5,7,15,38
46.743596660812706,10,5,7,16,42
48.091313319541015,10,5,8,1,50
46.95181527412586,10,5,8,2,54
45.017947626199394,10,5,8,3,58
40.66276366009579,10,5,8,4,62
45.43858209595154,10,5,8,6,66
55.39882977052097,10,5,8,7,70
104.70031509673322,10,5,8,8,74
59.75585643810818,10,5,8,9,78
55.623861305359114,10,5,8,10,82
53.79641188842674,10,5,8,11,86
52.57477100962075,10,5,8,12,90
51.65133436627424,10,5,8,13,94
50.78823725636816,10,5,8,14,98
49.95646697268108,10,5,8,15,102
49.0693578207881,10,5,8,16,106
49.46831694504993,10,5,9,1,114
48.03746639732979,10,5,9,2,118
45.85206024199605,10,5,9,3,122
41.14260584972591,10,5,9,4,126
44.56770125921777,10,5,9,6,130
52.09258100114252,10,5,9,7,134
59.77270023147546,10,5,9,8,138
105.23669718524845,10,5,9,9,142
61.84838846110604,10,5,9,10,146
57.75973615340707,10,5,9,11,150
55.62484178497141,10,5,9,12,154
54.1805067809583,10,5,9,13,158
52.96222775695807,10,5,9,14,162
51.879753848056474,10,5,9,15,166
50.72449979631276,10,5,9,16,170
50.7029284105284,10,5,10,1,178
48.970904701275366,10,5,10,2,182
46.517430958898714,10,5,10,3,186
41.49817154494502,10,5,10,4,190
44.03038734387903,10,5,10,6,194
50.622529573528126,10,5,10,7,198
55.58734373406469,10,5,10,8,202
61.82963522198142,10,5,10,9,206
108.36618343099514,10,5,10,10,210
64.01552981873633,10,5,10,11,214
59.260466422962175,10,5,10,12,218
56.90139182834016,10,5,10,13,222
55.1563831609975,10,5,10,14,226
53.6823013209481,10,5,10,15,230
52.225353617458744,10,5,10,16,234
51.72390354949264,10,5,11,1,242
49.762083628984676,10,5,11,2,246
47.06107118370451,10,5,11,3,250
41.77387543818405,10,5,11,4,254
43.68194187656825,10,5,11,6,2
49.72320936101215,10,5,11,7,6
53.82092515757917,10,5,11,8,10
57.739833500311335,10,5,11,9,14
63.981585045545586,10,5,11,10,18
110.93724558813396,10,5,11,11,22
64.68272748396453,10,5,11,12,26
59.92628569923731,10,5,11,13,30
57.314570546847655,10,5,11,14,34
55.35440572435548,10,5,11,15,38
53.555931143546246,10,5,11,16,42
52.807030754875974,10,5,12,1,50
50.55789668167829,10,5,12,2,54
47.57382194692587,10,5,12,3,58
41.98570013254599,10,5,12,4,62
43.37649974459731,10,5,12,6,66
49.021014682876235,10,5,12,7,70
52.594061621350406,10,5,12,8,74
55.60531828661536,10,5,12,9,78
59.27684182169492,10,5,12,10,82
64.67854467314129,10,5,12,11,86
110.24604594588565,10,5,12,12,90
65.252517888596,10,5,12,13,94
60.147533188991154,10,5,12,14,98
57.27576941547053,10,5,12,15,102
54.99221361021077,10,5,12,16,106
53.954373809145785,10,5,13,1,114
51.34293941481551,10,5,13,2,118
48.096700625857466,10,5,13,3,122
42.254148109795594,10,5,13,4,126
43.11507659780234,10,5,13,6,130
48.4169798099958,10,5,13,7,134
51.647702792873204,10,5,13,8,138
54.125715323609235,10,5,13,9,142
56.922804333951376,10,5,13,10,146
59.943151824152565,10,5,13,11,150
65.25788933233177,10,5,13,12,154
110.97601822800479,10,5,13,13,158
65.04566422395148,10,5,13,14,162
59.805733493162286,10,5,13,15,166
56.616992754169,10,5,13,16,170
55.33774456021351,10,5,14,1,178
52.25385936358978,10,5,14,2,182
48.66014856853041,10,5,14,3,186
42.47671624275433,10,5,14,4,190
42.80761634502094,10,5,14,6,194
47.88161464657036,10,5,14,7,198
50.80966245687217,10,5,14,8,202
52.93951081696929,10,5,14,9,206
55.16903034816731,10,5,14,10,210
57.35067604802773,10,5,14,11,214
60.147533188991154,10,5,14,12,218
65.04145754306013,10,5,14,13,222
109.93348700341362,10,5,14,14,226
64.59996662163809,10,5,14,15,230
58.9192128597038,10,5,14,16,234
57.390490849866026,10,5,15,1,242
53.38892908343521,10,5,15,2,246
49.322551849035065,10,5,15,3,250
42.72472173844387,10,5,15,4,254
42.55531762273818,10,5,15,6,2
47.36104728104854,10,5,15,7,6
49.931976927697434,10,5,15,8,10
51.856392500906445,10,5,15,9,14
53.69366261742881,10,5,15,10,18
55.33774456021351,10,5,15,11,22
57.31086420954034,10,5,15,12,26
59.805733493162286,10,5,15,13,30
64.59996662163809,10,5,15,14,34
109.23273520711768,10,5,15,15,38
63.36671049597884,10,5,15,16,42
61.61860837464005,10,5,16,1,50
55.11756224624575,10,5,16,2,54
50.13660515024074,10,5,16,3,58
43.063478010960885,10,5,16,4,62
42.2424745289839,10,5,16,6,66
46.745646834655716,10,5,16,7,70
49.10336588905781,10,5,16,8,74
50.7062068188537,10,5,16,9,78
52.242801840873724,10,5,16,10,82
53.55331388315016,10,5,16,11,86
54.998199822156046,10,5,16,12,90
56.60135114098314,10,5,16,13,94
58.915935574324834,10,5,16,14,98
63.4112772513224,10,5,16,15,102
107.42038813731726,10,5,16,16,106
44.65937463304795,10,6,7,1,114
44.29800226408552,10,6,7,2,118
43.78111348050516,10,6,7,3,122
42.78041721882171,10,6,7,4,126
40.50496662648593,10,6,7,5,130
92.72258496942528,10,6,7,7,134
50.4812711424763,10,6,7,8,138
48.01349696732427,10,6,7,9,142
47.04621859830002,10,6,7,10,146
46.81979180579586,10,6,7,11,150
46.67930405262773,10,6,7,12,154
46.122338011661235,10,6,7,13,158
45.56547230546531,10,6,7,14,162
45.275627218490555,10,6,7,15,166
45.0119895445161,10,6,7,16,170
49.25996854759849,10,6,8,1,178
48.85452344997996,10,6,8,2,182
47.57895594114951,10,6,8,3,186
46.044240753048314,10,6,8,4,190
42.898191015610884,10,6,8,5,194
50.43352111269872,10,6,8,7,198
102.64807218309336,10,6,8,8,202
58.06882644130077,10,6,8,9,206
55.03994949438951,10,6,8,10,210
53.652156982704504,10,6,8,11,214
52.77905768057151,10,6,8,12,218
52.038333792784556,10,6,8,13,222
51.28375300140645,10,6,8,14,226
50.27631340757569,10,6,8,15,230
49.76395438405112,10,6,8,16,234
51.4250301690919,10,6,9,1,242
50.987060503712115,10,6,9,2,246
49.284459899255836,10,6,9,3,250
47.365149162824615,10,6,9,4,254
43.7775157558099,10,6,9,5,2
48.01089106866656,10,6,9,7,6
58.09464073126196,10,6,9,8,10
104.82103809816059,10,6,9,9,14
62.14950285761808,10,6,9,10,18
58.480378452976424,10,6,9,11,22
56.70650863188278,10,6,9,12,26
55.52879122607561,10,6,9,13,30
54.38043372335219,10,6,9,14,34
53.078013567861625,10,6,9,15,38
52.24848373391687,10,6,9,16,42
53.19333561372813,10,6,10,1,50
52.4933994671934,10,6,10,2,54
50.47931405883139,10,6,10,3,58
48.25967105315452,10,6,10,4,62
44.32858216076201,10,6,10,5,66
47.06386390145773,10,6,10,7,70
54.454254083069486,10,6,10,8,74
61.551364873943655,10,6,10,9,78
109.2337797596779,10,6,10,10,82
65.2692093163203,10,6,10,11,86
60.86482131713956,10,6,10,12,90
58.76897651209368,10,6,10,13,94
57.10417523645642,10,6,10,14,98
55.40831933402311,10,6,10,15,102
54.282215704241075,10,6,10,16,106
54.64588933338505,10,6,11,1,114
53.65115027799357,10,6,11,2,118
51.37474668372021,10,6,11,3,122
48.92467678348702,10,6,11,4,126
44.69049347740465,10,6,11,5,130
46.52527675750807,10,6,11,7,134
53.030991888854956,10,6,11,8,138
57.82835365463705,10,6,11,9,142
65.24371761242283,10,6,11,10,146
112.5610249524314,10,6,11,11,150
66.64378421749812,10,6,11,12,154
62.157351228189974,10,6,11,13,158
59.66599605868748,10,6,11,14,162
57.43966743037911,10,6,11,15,166
55.95719304252354,10,6,11,16,170
56.0104415965183,10,6,12,1,178
54.70073535380302,10,6,12,2,182
52.19551831709303,10,6,12,3,186
49.4546170191899,10,6,12,4,190
44.99203970731245,10,6,12,5,194
46.13085009840367,10,6,12,7,198
52.11634729694616,10,6,12,8,202
56.022868377980295,10,6,12,9,206
60.738470429971755,10,6,12,10,210
66.6083989907488,10,6,12,11,214
112.532646156322,10,6,12,12,218
67.78748857176231,10,6,12,13,222
62.77182490173021,10,6,12,14,226
59.70571345400782,10,6,12,15,230
57.736522516351215,10,6,12,16,234
57.44912522026859,10,6,13,1,242
55.79469220587607,10,6,13,2,246
52.96114994070372,10,6,13,3,250
49.97808202094582,10,6,13,4,254
45.26577488274647,10,6,13,5,2
45.83313047154931,10,6,13,7,6
51.42520618139352,10,6,13,8,10
54.829603648003335,10,6,13,9,14
58.671709683907096,10,6,13,10,18
62.16648931129231,10,6,13,11,22
67.79745437132787,10,6,13,12,26
113.77599023032516,10,6,13,13,30
68.00939665111034,10,6,13,14,34
62.45700180860613,10,6,13,15,38
59.62164817166813,10,6,13,16,42
59.14475249707375,10,6,14,1,50
57.01319711940171,10,6,14,2,54
53.778671988984236,10,6,14,3,58
50.45148031505802,10,6,14,4,62
45.56733313300358,10,6,14,5,66
45.56813688808423,10,6,14,7,70
50.85226743564868,10,6,14,8,74
53.89497939153629,10,6,14,9,78
57.18532307119477,10,6,14,10,82
59.81220426915029,10,6,14,11,86
62.94807229262337,10,6,14,12,90
68.07709527444356,10,6,14,13,94
113.23117033489855,10,6,14,14,98
67.57181507375009,10,6,14,15,102
62.19196474262618,10,6,14,16,106
61.422651330080605,10,6,15,1,114
58.413777368390775,10,6,15,2,118
54.693543689325566,10,6,15,3,122
51.02435396057967,10,6,15,4,126
45.79362875276466,10,6,15,5,130
45.303143838656304,10,6,15,7,134
50.33514869699793,10,6,15,8,138
53.040348464486506,10,6,15,9,142
55.965813098740654,10,6,15,10,146
58.11291073723859,10,6,15,11,150
60.378036369016165,10,6,15,12,154
63.13785284368229,10,6,15,13,158
68.10220247940094,10,6,15,14,162
113.0922420636865,10,6,15,15,166
66.86948148274928,10,6,15,16,170
65.95882799264932,10,6,16,1,178
60.46201984274309,10,6,16,2,182
55.8689247116766,10,6,16,3,186
51.66980903755629,10,6,16,4,190
46.116899885577055,10,6,16,5,194
45.00606552420896,10,6,16,7,198
49.76323362935187,10,6,16,8,202
52.25221679104831,10,6,16,9,206
54.87279966893914,10,6,16,10,210
56.664292242141194,10,6,16,11,214
58.412747168344644,10,6,16,12,218
60.29379073508355,10,6,16,13,222
62.770717842063426,10,6,16,14,226
67.09044676407048,10,6,16,15,230
111.77324099579867,10,6,16,16,234
45.359000871151856,10,7,8,1,242
45.05405305586487,10,7,8,2,246
44.64123439900442,10,7,8,3,250
44.07263472729797,10,7,8,4,254
43.29527175619555,10,7,8,5,2
40.991860891787496,10,7,8,6,6
92.5752809756806,10,7,8,8,10
50.91295487166501,10,7,8,9,14
48.307365686827275,10,7,8,10,18
47.43451424840222,10,7,8,11,22
46.91566893701994,10,7,8,12,26
46.518976145058055,10,7,8,13,30
46.119306516729445,10,7,8,14,34
45.81732454715385,10,7,8,15,38
45.608671797348535,10,7,8,16,42
50.03526051492915,10,7,9,1,50
49.51900628078836,10,7,9,2,54
48.77384867712254,10,7,9,3,58
47.828015901164186,10,7,9,4,62
46.630107105872106,10,7,9,5,66
43.4013499426486,10,7,9,6,70
50.895745878285645,10,7,9,8,74
99.76141467798074,10,7,9,9,78
57.879472138493334,10,7,9,10,82
54.65362278041979,10,7,9,11,86
53.26124418360235,10,7,9,12,90
52.40416712915158,10,7,9,13,94
51.64995360868544,10,7,9,14,98
51.04109777708067,10,7,9,15,102
50.521563589111395,10,7,9,16,106
52.72809846194866,10,7,10,1,114
51.946644123895844,10,7,10,2,118
50.95653105097038,10,7,10,3,122
49.71853262288133,10,7,10,4,126
48.103013531792186,10,7,10,5,130
44.35937608681203,10,7,10,6,134
48.222313957672824,10,7,10,8,138
57.77092003208463,10,7,10,9,142
105.87434501663456,10,7,10,10,146
62.42195975160387,10,7,10,11,150
58.35700858384621,10,7,10,12,154
56.58186882620948,10,7,10,13,158
55.35035780105241,10,7,10,14,162
54.343852844697324,10,7,10,15,166
53.50957605721251,10,7,10,16,170
54.671618826069654,10,7,11,1,178
53.64133893945876,10,7,11,2,182
52.326225121293966,10,7,11,3,186
50.88213238515819,10,7,11,4,190
49.04382637711011,10,7,11,5,194
44.853476695701666,10,7,11,6,198
47.33166882224215,10,7,11,8,202
54.57053550719401,10,7,11,9,206
62.400806555292995,10,7,11,10,210
110.22483195082737,10,7,11,11,214
64.67683246476382,10,7,11,12,218
60.49216189281445,10,7,11,13,222
58.43824464231413,10,7,11,14,226
56.90233312051943,10,7,11,15,230
55.71839273874611,10,7,11,16,234
56.4278610123343,10,7,12,1,242
55.07614108759831,10,7,12,2,246
53.54962709493224,10,7,12,3,250
51.80305238648685,10,7,12,4,254
49.70709001692901,10,7,12,5,2
45.254603358939406,10,7,12,6,6
46.78203864307699,10,7,12,8,10
53.141696278400495,10,7,12,9,14
58.349399139866854,10,7,12,10,18
64.66707913028483,10,7,12,11,22
110.92900112115348,10,7,12,12,26
66.51317005896757,10,7,12,13,30
61.9236339125,10,7,12,14,34
59.52883886720137,10,7,12,15,38
57.872239786286144,10,7,12,16,42
58.14951214679991,10,7,13,1,50
56.49261213060467,10,7,13,2,54
54.65042045219317,10,7,13,3,58
52.59606240409647,10,7,13,4,62
50.289812202146734,10,7,13,5,66
45.571904882179325,10,7,13,6,70
46.43035233267982,10,7,13,8,74
52.278193154602846,10,7,13,9,78
56.57231765303239,10,7,13,10,82
60.50888086993633,10,7,13,11,86
66.5272507695399,10,7,13,12,90
112.82994428457596,10,7,13,13,94
67.40210556041316,10,7,13,14,98
62.64317703923754,10,7,13,15,102
60.05966032786166,10,7,13,16,106
60.111352981240636,10,7,14,1,114
57.925376956659015,10,7,14,2,118
55.69754381772875,10,7,14,3,122
53.435369176982086,10,7,14,4,126
50.82076446166636,10,7,14,5,130
45.83693466003779,10,7,14,6,134
46.128543553054406,10,7,14,8,138
51.589726503299744,10,7,14,9,142
55.3926711044632,10,7,14,10,146
58.45542724695752,10,7,14,11,150
61.957611607294325,10,7,14,12,154
67.40329471670414,10,7,14,13,158
112.88065589553607,10,7,14,14,162
67.96048776994182,10,7,14,15,166
62.89536493660213,10,7,14,16,170
62.69996699483323,10,7,15,1,178
59.63407835108892,10,7,15,2,182
56.88087568595174,10,7,15,3,186
54.216549200206366,10,7,15,4,190
51.380888894642446,10,7,15,5,194
46.1057602293184,10,7,15,6,198
45.823734904778235,10,7,15,8,202
51.0222402627291,10,7,15,9,206
54.43822726724712,10,7,15,10,210
57.01708338267908,10,7,15,11,214
59.63898830356239,10,7,15,12,218
62.74391384468749,10,7,15,13,222
68.01755446495223,10,7,15,14,226
113.28557473018161,10,7,15,15,230
67.8826430769177,10,7,15,16,234
67.62720458412329,10,7,16,1,242
61.94184132660206,10,7,16,2,246
58.36552693193164,10,7,16,3,250
55.14062694957044,10,7,16,4,254
51.94744868127789,10,7,16,5,2
46.353793872241475,10,7,16,6,6
45.55870542792942,10,7,16,8,10
50.50194572385712,10,7,16,9,14
53.56442755817289,10,7,16,10,18
55.829069968323346,10,7,16,11,22
57.928102055240764,10,7,16,12,26
60.15618236423263,10,7,16,13,30
63.00081307862725,10,7,16,14,34
67.88384112907791,10,7,16,15,38
112.66938098103334,10,7,16,16,42
44.88804813589976,10,8,9,1,50
45.179213467063654,10,8,9,2,54
44.96652714307948,10,8,9,3,58
43.951939064389514,10,8,9,4,62
43.51498156978455,10,8,9,5,66
42.59044604283936,10,8,9,6,70
40.15786699137422,10,8,9,7,74
89.49746490842857,10,8,9,9,78
50.34557929857425,10,8,9,10,82
47.992860101981,10,8,9,11,86
46.80630288921801,10,8,9,12,90
46.55220073374675,10,8,9,13,94
46.35491398055837,10,8,9,14,98
46.050950624108324,10,8,9,15,102
45.603605016743984,10,8,9,16,106
50.28547378122486,10,8,10,1,114
50.3391254918096,10,8,10,2,118
49.823067405380826,10,8,10,3,122
48.46230855772591,10,8,10,4,126
47.70575627292469,10,8,10,5,130
46.220607462223576,10,8,10,6,134
42.849156200018264,10,8,10,7,138
49.92910131839794,10,8,10,9,142
101.08288018213129,10,8,10,10,146
58.465319888478575,10,8,10,11,150
54.75941893266178,10,8,10,12,154
53.462319107902864,10,8,10,13,158
52.69372744343576,10,8,10,14,162
52.00650258668568,10,8,10,15,166
51.33071992898386,10,8,10,16,170
53.114113982677495,10,8,11,1,178
52.94341773077355,10,8,11,2,182
52.161148373427125,10,8,11,3,186
50.52932297201102,10,8,11,4,190
49.44746195625911,10,8,11,5,194
47.64252042109924,10,8,11,6,198
43.726677610247215,10,8,11,7,202
47.552928499217906,10,8,11,9,206
58.50517320159086,10,8,11,10,210
107.22968489385819,10,8,11,11,214
62.051606884791504,10,8,11,12,218
58.347009438106205,10,8,11,13,222
56.646982894240416,10,8,11,14,226
55.51172632047759,10,8,11,15,230
54.45331423879824,10,8,11,16,234
55.39162451730807,10,8,12,1,242
54.95389617161778,10,8,12,2,246
53.92059384756175,10,8,12,3,250
52.02354308174127,10,8,12,4,254
50.71223065278861,10,8,12,5,2
48.57052509891298,10,8,12,6,6
44.248799795469004,10,8,12,7,10
46.64682982338511,10,8,12,9,14
54.940790106906114,10,8,12,10,18
62.14438689593886,10,8,12,11,22
108.93020436691732,10,8,12,12,26
64.90395034274052,10,8,12,13,30
60.66068312291057,10,8,12,14,34
58.67228427010427,10,8,12,15,38
57.100772042597924,10,8,12,16,42
57.54052291244777,10,8,13,1,50
56.67462354343525,10,8,13,2,54
55.37967926514751,10,8,13,3,58
53.22151856231266,10,8,13,4,62
51.64382548844718,10,8,13,5,66
49.28211472519288,10,8,13,6,70
44.66134892442345,10,8,13,7,74
46.19818108359228,10,8,13,9,78
53.56464862486587,10,8,13,10,82
58.37548193519157,10,8,13,11,86
64.86377412255169,10,8,13,12,90
111.59860390680512,10,8,13,13,94
66.5374707418765,10,8,13,14,98
62.13360522750196,10,8,13,15,102
59.72713774284309,10,8,13,16,106
59.82455316086397,10,8,14,1,114
58.47194023374802,10,8,14,2,118
56.775654249801754,10,8,14,3,122
54.32474345250058,10,8,14,4,126
52.48286109410695,10,8,14,5,130
49.855909835170436,10,8,14,6,134
44.97266908350349,10,8,14,7,138
45.896435125184254,10,8,14,9,142
52.667916318239634,10,8,14,10,146
56.578178201521865,10,8,14,11,150
60.55279829424649,10,8,14,12,154
66.50308531481647,10,8,14,13,158
112.35938256380706,10,8,14,14,162
67.7623584617884,10,8,14,15,166
62.911762711740884,10,8,14,16,170
62.66485178511738,10,8,15,1,178
60.39738509958096,10,8,15,2,182
58.227552782542595,10,8,15,3,186
55.378831748557964,10,8,15,4,190
53.31148629073398,10,8,15,5,194
50.3956421349421,10,8,15,6,198
45.23768177361961,10,8,15,7,202
45.65144458809252,10,8,15,9,206
51.972386128948635,10,8,15,10,210
55.418058045919025,10,8,15,11,214
58.46645611775442,10,8,15,12,218
62.059200491729506,10,8,15,13,222
67.74095931695776,10,8,15,14,226
113.26521516940542,10,8,15,15,230
68.20852987732401,10,8,15,16,234
67.72941090658058,10,8,16,1,242
63.02664351144907,10,8,16,2,246
59.97696995594652,10,8,16,3,250
56.59559893395556,10,8,16,4,254
54.146388935051995,10,8,16,5,2
50.91257759840743,10,8,16,6,6
45.492380508920135,10,8,16,7,10
45.38641499074718,10,8,16,9,14
51.40256023388881,10,8,16,10,18
54.501025443526466,10,8,16,11,22
56.98304545854933,10,8,16,12,26
59.7387280875555,10,8,16,13,30
62.93286390024279,10,8,16,14,34
68.22141397650803,10,8,16,15,38
113.1245451634977,10,8,16,16,42
45.20620134416813,10,9,10,1,50
44.9029150751001,10,9,10,2,54
45.12747369685523,10,9,10,3,58
44.28066151061191,10,9,10,4,62
43.89809795402915,10,9,10,5,66
43.372009371877674,10,9,10,6,70
42.45702058049627,10,9,10,7,74
39.929519693862694,10,9,10,8,78
90.97653718988934,10,9,10,10,82
50.16447783417317,10,9,10,11,86
47.54724957416724,10,9,10,12,90
46.63490824567707,10,9,10,13,94
46.11845671112335,10,9,10,14,98
46.23846736247769,10,9,10,15,102
46.0799983350694,10,9,10,16,106
50.31339077033573,10,9,11,1,114
49.780700759083,10,9,11,2,118
49.797131238112385,10,9,11,3,122
48.60577932839153,10,9,11,4,126
47.996862223865826,10,9,11,5,130
47.13647573998118,10,9,11,6,134
45.68042165608723,10,9,11,7,138
42.305676005463866,10,9,11,8,142
50.16787461669739,10,9,11,10,146
101.69917646602406,10,9,11,11,150
57.065223309852826,10,9,11,12,154
53.795127318608124,10,9,11,13,158
52.368643399585444,10,9,11,14,162
52.02086040996853,10,9,11,15,166
51.54434024297337,10,9,11,16,170
53.509798502524724,10,9,12,1,178
52.648860479951026,10,9,12,2,182
52.43675501605243,10,9,12,3,186
50.97615687082574,10,9,12,4,190
50.142857886763615,10,9,12,5,194
48.927774539179126,10,9,12,6,198
47.10039014217741,10,9,12,7,202
43.24697567671274,10,9,12,8,206
47.52413623723171,10,9,12,10,210
57.03187924026538,10,9,12,11,214
105.1521915343581,10,9,12,12,218
61.19033847353779,10,9,12,13,222
57.456130421980184,10,9,12,14,226
56.13505512645354,10,9,12,15,230
55.044509776758325,10,9,12,16,234
56.07513858300313,10,9,13,1,242
54.843119740593956,10,9,13,2,246
54.3920890692519,10,9,13,3,250
52.65710370060589,10,9,13,4,254
51.57068263934427,10,9,13,5,2
50.12578426433244,10,9,13,6,6
47.93997626037937,10,9,13,7,10
43.741256030689925,10,9,13,8,14
46.62935480053082,10,9,13,10,18
53.753169779051596,10,9,13,11,22
61.20224243184181,10,9,13,12,26
108.89215546403423,10,9,13,13,30
63.945239209241784,10,9,13,14,34
60.08898894371817,10,9,13,15,38
58.128116210274385,10,9,13,16,42
58.74689537802246,10,9,14,1,50
56.99775321128872,10,9,14,2,54
56.17558927907963,10,9,14,3,58
54.109126613966666,10,9,14,4,62
52.79733173298489,10,9,14,5,66
51.06055811888221,10,9,14,6,70
48.610314323069346,10,9,14,7,74
44.13249823165811,10,9,14,8,78
46.106251647678185,10,9,14,10,82
52.36007179053996,10,9,14,11,86
57.24971340411857,10,9,14,12,90
63.583011626235255,10,9,14,13,94
110.3642433767142,10,9,14,14,98
66.11424924913972,10,9,14,15,102
61.62177866122195,10,9,14,16,106
61.84288110127849,10,9,15,1,114
59.27256734718315,10,9,15,2,118
57.93582839291436,10,9,15,3,122
55.47151957684371,10,9,15,4,126
53.908445241699354,10,9,15,5,130
51.89309377827587,10,9,15,6,134
49.19362394548605,10,9,15,7,138
44.40609023171619,10,9,15,8,142
45.730922748754956,10,9,15,10,146
51.49645936346158,10,9,15,11,150
55.51134468546067,10,9,15,12,154
59.48756348166725,10,9,15,13,158
65.84913865943152,10,9,15,14,162
111.91897370357073,10,9,15,15,166
67.13555963004856,10,9,15,16,170
67.17667934235507,10,9,16,1,178
62.112997874114235,10,9,16,2,182
59.937152954151514,10,9,16,3,186
56.92081665446671,10,9,16,4,190
55.03512871551778,10,9,16,5,194
52.689109298601096,10,9,16,6,198
49.70965563098434,10,9,16,7,202
44.66140795188607,10,9,16,8,206
45.38641499074718,10,9,16,10,210
50.849411148895854,10,9,16,11,214
54.37606830924268,10,9,16,12,218
57.4379018833884,10,9,16,13,222
61.17036568831907,10,9,16,14,226
67.09569719687893,10,9,16,15,230
112.40993808717718,10,9,16,16,234
45.903441336192785,10,10,11,1,242
46.353039011347875,10,10,11,2,246
45.913677442562275,10,10,11,3,250
45.175990667321756,10,10,11,4,254
44.91439373143559,10,10,11,5,2
44.898310410190426,10,10,11,6,6
43.985757134685265,10,10,11,7,10
43.69586071248329,10,10,11,8,14
40.79862130232806,10,10,11,9,18
92.52084000418124,10,10,11,11,22
50.902620039760144,10,10,11,12,26
48.57476329954867,10,10,11,13,30
47.74159787976544,10,10,11,14,34
47.13326361066539,10,10,11,15,38
46.21143679922474,10,10,11,16,42
51.74378200268494,10,10,12,1,50
51.88774609407599,10,10,12,2,54
51.22681981923562,10,10,12,3,58
50.14078979114776,10,10,12,4,62
49.65109723459602,10,10,12,5,66
49.43884559147204,10,10,12,6,70
48.03687371793664,10,10,12,7,74
47.25642347862772,10,10,12,8,78
43.40368261478895,10,10,12,9,82
51.00183002343862,10,10,12,11,86
101.28240787961104,10,10,12,12,90
58.640635074204496,10,10,12,13,94
55.33070878773699,10,10,12,14,98
53.88424587421693,10,10,12,15,102
52.64266574410061,10,10,12,16,106
55.273032199271775,10,10,13,1,114
55.02133835636326,10,10,13,2,118
54.10281140119838,10,10,13,3,122
52.75134388513819,10,10,13,4,126
51.996522509800286,10,10,13,5,130
51.559771270393234,10,10,13,6,134
49.81184345923389,10,10,13,7,138
48.6458491921868,10,10,13,8,142
44.301808141222175,10,10,13,9,146
48.632632070686995,10,10,13,11,150
58.63321181160221,10,10,13,12,154
106.78990297386191,10,10,13,13,158
62.51474124373459,10,10,13,14,162
58.76461432899101,10,10,13,15,166
56.743917952987246,10,10,13,16,170
58.42637470460453,10,10,14,1,178
57.69627846990782,10,10,14,2,182
56.42334108092316,10,10,14,3,186
54.7677954822166,10,10,14,4,190
53.760807457348285,10,10,14,5,194
53.071054843342914,10,10,14,6,198
51.00484307442186,10,10,14,7,202
49.57341729930619,10,10,14,8,206
44.844752651806424,10,10,14,9,210
47.78493343434811,10,10,14,11,214
55.258142643852864,10,10,14,12,218
62.53201445462277,10,10,14,13,222
109.23731130738776,10,10,14,14,226
65.28394067267337,10,10,14,15,230
60.86369768864908,10,10,14,16,234
61.93783475740272,10,10,15,1,242
60.33048321591593,10,10,15,2,246
58.5691636559831,10,10,15,3,250
56.51686578871301,10,10,15,4,254
55.20378135416977,10,10,15,5,2
54.26172169434463,10,10,15,6,6
51.97333217244538,10,10,15,7,10
50.2364990372326,10,10,15,8,14
45.240724403017154,10,10,15,9,18
47.228331716878046,10,10,15,11,22
53.851116123507445,10,10,15,12,26
58.75829550188487,10,10,15,13,30
65.31909891007501,10,10,15,14,34
111.48053762375734,10,10,15,15,38
66.85343506689385,10,10,15,16,42
67.61563389927369,10,10,16,1,50
63.443348785497484,10,10,16,2,54
60.85646443363116,10,10,16,3,58
58.27390819035501,10,10,16,4,62
56.65669944860086,10,10,16,5,66
55.39643923807349,10,10,16,6,70
52.81165846235001,10,10,16,7,74
50.80962482450498,10,10,16,8,78
45.56460004677023,10,10,16,9,82
46.88767556653411,10,10,16,11,86
52.9842589765692,10,10,16,12,90
57.057031312521545,10,10,16,13,94
61.12150422275426,10,10,16,14,98
66.98591846072867,10,10,16,15,102
112.45054573847058,10,10,16,16,106
47.82488352004718,10,11,12,1,114
48.235098695522396,10,11,12,2,118
47.54717816533581,10,11,12,3,122
47.04454960819618,10,11,12,4,126
46.819707346546785,10,11,12,5,130
47.05813794226508,10,11,12,6,134
46.09530587448204,10,11,12,7,138
46.00007383902362,10,11,12,8,142
44.67714189211353,10,11,12,9,146
42.678147150187314,10,11,12,10,150
93.06917550778749,10,11,12,12,154
52.75815407423342,10,11,12,13,158
50.231134398071504,10,11,12,14,162
49.1201571192118,10,11,12,15,166
48.22081147934283,10,11,12,16,170
53.72601023334479,10,11,13,1,178
53.742319826483886,10,11,13,2,182
52.892482587017156,10,11,13,3,186
52.03539461550745,10,11,13,4,190
51.55867640853576,10,11,13,5,194
51.55100199109375,10,11,13,6,198
50.23138119648361,10,11,13,7,202
49.850585052734914,10,11,13,8,206
47.96728951864268,10,11,13,9,210
45.08068456541669,10,11,13,10,214
52.73356690495328,10,11,13,12,218
103.25703163285375,10,11,13,13,222
59.88257136823185,10,11,13,14,226
56.480612438505425,10,11,13,15,230
54.56366689877881,10,11,13,16,234
57.76369827092094,10,11,14,1,242
57.26315894547205,10,11,14,2,246
56.11078633781258,10,11,14,3,250
54.88888697449671,10,11,14,4,254
54.18938604303809,10,11,14,5,2
53.938223656677096,10,11,14,6,6
52.3049039804032,10,11,14,7,10
51.643295076897516,10,11,14,8,14
49.33864850402943,10,11,14,9,18
45.93494579641561,10,11,14,10,22
50.265816082571654,10,11,14,12,26
59.895922102349196,10,11,14,13,30
107.42635387174627,10,11,14,14,34
63.910074545671264,10,11,14,15,38
59.512382399736985,10,11,14,16,42
61.74624840460674,10,11,15,1,50
60.38474190713146,10,11,15,2,54
58.78981192080632,10,11,15,3,58
57.13863879166104,10,11,15,4,62
56.13045445027874,10,11,15,5,66
55.60945362185084,10,11,15,6,70
53.7151367210846,10,11,15,7,74
52.803829183948196,10,11,15,8,78
50.232363401250915,10,11,15,9,82
46.440903428806564,10,11,15,10,86
49.3975308136904,10,11,15,12,90
56.60236461872795,10,11,15,13,94
64.02866199450206,10,11,15,14,98
110.64480083151618,10,11,15,15,102
66.22520409003346,10,11,15,16,106
67.78969460014325,10,11,16,1,114
63.918537576991156,10,11,16,2,118
61.46645485090596,10,11,16,3,122
59.240388923919994,10,11,16,4,126
57.92815400424674,10,11,16,5,130
57.10934292342175,10,11,16,6,134
54.906164831642755,10,11,16,7,138
53.729559842091746,10,11,16,8,142
50.890098818602816,10,11,16,9,146
46.807784439550566,10,11,16,10,150
48.88887394492311,10,11,16,12,154
55.26343820076292,10,11,16,13,158
60.2071367152227,10,11,16,14,162
66.4945291833411,10,11,16,15,166
112.34980114413854,10,11,16,16,170
46.660204785531235,10,12,13,1,178
46.938452420417576,10,12,13,2,182
46.01302021879985,10,12,13,3,186
45.76182598954951,10,12,13,4,190
45.53695003765957,10,12,13,5,194
45.94394368327207,10,12,13,6,198
44.9257379074467,10,12,13,7,202
44.56783744752439,10,12,13,8,206
44.05505269353953,10,12,13,9,210
43.69936223826907,10,12,13,10,214
41.43586356847676,10,12,13,11,218
91.90089640164418,10,12,13,13,222
51.02467435249466,10,12,13,14,226
48.045770545078994,10,12,13,15,230
47.14652737899958,10,12,13,16,234
53.20359451396615,10,12,14,1,242
53.00475356561039,10,12,14,2,246
51.6801497714088,10,12,14,3,250
51.12078133910697,10,12,14,4,254
50.637577060911546,10,12,14,5,2
50.77760075007171,10,12,14,6,6
49.45611215022323,10,12,14,7,10
48.88458776041449,10,12,14,8,14
47.93462901832785,10,12,14,9,18
47.11135289113839,10,12,14,10,22
43.9246631129866,10,12,14,11,26
51.084428112165305,10,12,14,13,30
101.07844875632289,10,12,14,14,34
58.24757639573669,10,12,14,15,38
54.55052609580142,10,12,14,16,42
58.036836484346054,10,12,15,1,50
56.963263469876374,10,12,15,2,54
55.16687746788591,10,12,15,3,58
54.235252240399326,10,12,15,4,62
53.493491784210256,10,12,15,5,66
53.33428627187068,10,12,15,6,70
51.78488575026325,10,12,15,7,74
51.07043838448478,10,12,15,8,78
49.692165294589785,10,12,15,9,82
48.47698805156959,10,12,15,10,86
44.81922851596961,10,12,15,11,90
48.713280050443466,10,12,15,13,94
58.55292166822854,10,12,15,14,98
106.0206181472207,10,12,15,15,102
61.82963522198142,10,12,15,16,106
64.5870736734874,10,12,16,1,114
61.0212884828663,10,12,16,2,118
58.50418587242037,10,12,16,3,122
56.87563109975397,10,12,16,4,126
55.82785981906249,10,12,16,5,130
55.309740085948135,10,12,16,6,134
53.50827236789901,10,12,16,7,138
52.58158934954336,10,12,16,8,142
50.888299662246865,10,12,16,9,146
49.36153743407634,10,12,16,10,150
45.35176167359242,10,12,16,11,154
47.85557897428167,10,12,16,13,158
55.22156781112349,10,12,16,14,162
62.2660808474505,10,12,16,15,166
108.76128677426024,10,12,16,16,170
47.90683867829009,10,13,14,1,178
48.09165946452656,10,13,14,2,182
47.18083368443401,10,13,14,3,186
46.742666199390754,10,13,14,4,190
46.51566381047532,10,13,14,5,194
46.819707346546785,10,13,14,6,198
45.94691937597306,10,13,14,7,202
46.02912463299621,10,13,14,8,206
45.245919248157925,10,13,14,9,210
45.37730184834837,10,13,14,10,214
44.557388947483034,10,13,14,11,218
42.03233720899512,10,13,14,12,222
92.10683499591472,10,13,14,14,226
51.67422588132915,10,13,14,15,230
48.777600470456285,10,13,14,16,234
55.14513031282353,10,13,15,1,242
54.415646307680454,10,13,15,2,246
53.22409134341279,10,13,15,3,250
52.22813155205939,10,13,15,4,254
51.75138169501645,10,13,15,5,2
51.767239377612064,10,13,15,6,6
50.61182021393766,10,13,15,7,10
50.52190122195843,10,13,15,8,14
49.35703646291642,10,13,15,9,18
49.14160381421524,10,13,15,10,22
47.778018984233235,10,13,15,11,26
44.392739445942496,10,13,15,12,30
51.926276812813164,10,13,15,14,34
101.75317531757175,10,13,15,15,38
58.455104022538116,10,13,15,16,42
62.54307409104604,10,13,16,1,50
59.32609621747501,10,13,16,2,54
57.313539449699235,10,13,16,3,58
55.754629538129834,10,13,16,4,62
54.915526969260526,10,13,16,5,66
54.62655273340165,10,13,16,6,70
53.16684093852995,10,13,16,7,74
52.82160182228816,10,13,16,8,78
51.43120076152027,10,13,16,9,82
50.83448443639523,10,13,16,10,86
49.168756068334396,10,13,16,11,90
45.27154102746471,10,13,16,12,94
49.45792493278953,10,13,16,14,98
58.96858985422034,10,13,16,15,102
106.21528968431092,10,13,16,16,106
47.91760539368247,10,14,15,1,114
47.680537714493106,10,14,15,2,118
47.09843374208131,10,14,15,3,122
46.18833057956471,10,14,15,4,126
45.920833324917204,10,14,15,5,130
46.050915556830354,10,14,15,6,134
45.35139048961043,10,14,15,7,138
45.707280491926774,10,14,15,8,142
44.78276197666408,10,14,15,9,146
45.11567667867015,10,14,15,10,150
44.58378713687301,10,14,15,11,154
43.60773966300319,10,14,15,12,158
41.34650876710397,10,14,15,13,162
91.20590935664872,10,14,15,15,166
50.589133787021375,10,14,15,16,170
57.826465753419264,10,14,16,1,178
55.08667890194823,10,14,16,2,182
53.64022730140144,10,14,16,3,186
52.159969454287,10,14,16,4,190
51.53866673944294,10,14,16,5,194
51.45943827110597,10,14,16,6,198
50.369550920210266,10,14,16,7,202
50.515684278064384,10,14,16,8,206
49.31459034655576,10,14,16,9,210
49.28871015742323,10,14,16,10,214
48.46423279133464,10,14,16,11,218
46.969316850220835,10,14,16,12,222
43.81941017749611,10,14,16,13,226
50.942358084794655,10,14,16,15,230
100.63963012240407,10,14,16,16,234
50.70868255741606,10,15,16,1,242
48.657267614761835,10,15,16,2,246
47.99690227349729,10,15,16,3,250
46.75060634234094,10,15,16,4,254
46.399541779812424,10,15,16,5,2
46.13202848588662,10,15,16,6,6
45.82781210676831,10,15,16,7,10
46.23707431389293,10,15,16,8,14
45.78815544169013,10,15,16,9,18
45.575792414001,10,15,16,10,22
44.99380995828473,10,15,16,11,26
44.09802561447105,10,15,16,12,30
43.53898825244498,10,15,16,13,34
41.305268942482115,10,15,16,14,38
91.12649254737495,10,15,16,16,42
92.45342376308469,10,1,2,2,46
51.085106842314055,10,1,2,3,50
48.516963174090115,10,1,2,4,54
47.7002102725259,10,1,2,5,58
47.18371674672692,10,1,2,6,62
46.78771920519093,10,1,2,7,66
46.49405580291119,10,1,2,8,70
46.23250773708859,10,1,2,9,74
45.91109169881709,10,1,2,10,78
45.6465623408842,10,1,2,11,82
45.396342108979496,10,1,2,12,86
45.00165694847361,10,1,2,13,90
44.509275561085595,10,1,2,14,94
43.68967196810795,10,1,2,15,98
41.207344072156864,10,1,2,16,102
51.09283195452837,10,1,3,2,110
102.50328401398832,10,1,3,3,114
58.16303320967713,10,1,3,4,118
55.06473018565851,10,1,3,5,122
53.5853126476082,10,1,3,6,126
52.66832181543838,10,1,3,7,130
51.97901254418813,10,1,3,8,134
51.450334040180756,10,1,3,9,138
50.881049136169224,10,1,3,10,142
50.32749400272894,10,1,3,11,146
49.78217453154187,10,1,3,12,150
49.15011668799784,10,1,3,13,154
48.31204313420331,10,1,3,14,158
46.90961615136204,10,1,3,15,162
43.587087807487094,10,1,3,16,166
48.52467453074176,10,1,4,2,174
58.18409075397305,10,1,4,3,178
109.03139621933457,10,1,4,4,182
62.997646386907235,10,1,4,5,186
58.67421193482065,10,1,4,6,190
56.77000370683993,10,1,4,7,194
55.535263850913005,10,1,4,8,198
54.58042714940495,10,1,4,9,202
53.76004475060122,10,1,4,10,206
52.97753945605041,10,1,4,11,210
52.14633465941971,10,1,4,12,214
51.255344239096466,10,1,4,13,218
50.03992237266816,10,1,4,14,222
48.28904070277615,10,1,4,15,226
44.411202189914725,10,1,4,16,230
47.730359141247746,10,1,5,2,238
55.09515826297993,10,1,5,3,242
62.991351341527334,10,1,5,4,246
107.94495915250047,10,1,5,5,250
64.69625038799943,10,1,5,6,254
60.46992710709027,10,1,5,7,2
58.420343686060825,10,1,5,8,6
57.02927496784212,10,1,5,9,10
55.850241150156826,10,1,5,10,14
54.80274046745576,10,1,5,11,18
53.704193477114785,10,1,5,12,22
52.57392911504247,10,1,5,13,26
51.13109350458493,10,1,5,14,30
49.11782638112262,10,1,5,15,34
44.89542571195584,10,1,5,16,38
47.178559202675125,10,1,6,2,46
53.59188370562078,10,1,6,3,50
58.61360673082905,10,1,6,4,54
64.72364331083344,10,1,6,5,58
112.65732322448002,10,1,6,6,62
66.51303214433628,10,1,6,7,66
62.019745875678744,10,1,6,8,70
59.75439624190439,10,1,6,9,74
58.00395785689078,10,1,6,10,78
56.61240410261913,10,1,6,11,82
55.20865132093354,10,1,6,12,86
53.82066087670468,10,1,6,13,90
52.111063088939005,10,1,6,14,94
49.82842995716197,10,1,6,15,98
45.282807396944605,10,1,6,16,102
46.77634163724054,10,1,7,2,110
52.63191065061112,10,1,7,3,114
56.742734604318684,10,1,7,4,118
60.49416225514652,10,1,7,5,122
66.48609393624758,10,1,7,6,126
114.56092910126736,10,1,7,7,130
67.74569683054992,10,1,7,8,134
63.092137299904024,10,1,7,9,138
60.3878649808491,10,1,7,10,142
58.41285180281884,10,1,7,11,146
56.66683667768806,10,1,7,12,150
54.970109427691675,10,1,7,13,154
52.99508104594451,10,1,7,14,158
50.419607361526374,10,1,7,15,162
45.596366517421494,10,1,7,16,166
46.501821469624474,10,1,8,2,174
52.00103701737138,10,1,8,3,178
55.48446321041249,10,1,8,4,182
58.45264387382595,10,1,8,5,186
61.995976797089746,10,1,8,6,190
67.79852700774639,10,1,8,7,194
114.96955688521757,10,1,8,8,198
68.66904726083673,10,1,8,9,202
63.30022895369237,10,1,8,10,206
60.47244694202202,10,1,8,11,210
58.14673564483183,10,1,8,12,214
56.05343710092725,10,1,8,13,218
53.785974774568565,10,1,8,14,222
50.93641386699007,10,1,8,15,226
45.86145273703081,10,1,8,16,230
46.2096124474934,10,1,9,2,238
51.41687423859515,10,1,9,3,242
54.55736454306729,10,1,9,4,246
57.03654057991554,10,1,9,5,250
59.75228853218741,10,1,9,6,254
63.065708628138886,10,1,9,7,2
68.65895196545793,10,1,9,8,6
112.72634026464426,10,1,9,9,10
68.16874723639731,10,1,9,10,14
62.9730131519524,10,1,9,11,18
59.79208319943612,10,1,9,12,22
57.21254289178253,10,1,9,13,26
54.59711811677078,10,1,9,14,30
51.44326836996606,10,1,9,15,34
46.13244122270422,10,1,9,16,38
45.949716595147144,10,1,10,2,46
50.8767582504398,10,1,10,3,50
53.686236407915864,10,1,10,4,54
55.819913036650746,10,1,10,5,58
57.9669035848877,10,1,10,6,62
60.364786684550275,10,1,10,7,66
63.295017290014194,10,1,10,8,70
68.13771165607719,10,1,10,9,74
113.45140174710312,10,1,10,10,78
68.0536045294594,10,1,10,11,82
62.195003900796706,10,1,10,12,86
58.71289913219601,10,1,10,13,90
55.51509264788062,10,1,10,14,94
52.016438186746036,10,1,10,15,98
46.38780550663134,10,1,10,16,102
45.64873989123782,10,1,11,2,110
50.364143840423665,10,1,11,3,114
52.94754359800999,10,1,11,4,118
54.780989365787505,10,1,11,5,122
56.58261987709365,10,1,11,6,126
58.41285180281884,10,1,11,7,130
60.467467448184735,10,1,11,8,134
62.98634741956974,10,1,11,9,138
68.06361150007379,10,1,11,10,142
113.89750449026712,10,1,11,11,146
66.56579371168822,10,1,11,12,150
60.71550860355017,10,1,11,13,154
56.659504384956705,10,1,11,14,158
52.68247495995372,10,1,11,15,162
46.69557732012143,10,1,11,16,166
45.37111689216593,10,1,12,2,174
49.82257054641297,10,1,12,3,178
52.10156452886789,10,1,12,4,182
53.719035706080476,10,1,12,5,186
55.20313303080565,10,1,12,6,190
56.64751030344552,10,1,12,7,194
58.18088315714593,10,1,12,8,198
59.82695528457404,10,1,12,9,202
62.22677091181282,10,1,12,10,206
66.60022518985512,10,1,12,11,210
111.08280725214608,10,1,12,12,214
64.98218201023887,10,1,12,13,218
58.396708243875786,10,1,12,14,222
53.532572643470786,10,1,12,15,226
47.02787906153308,10,1,12,16,230
45.02096287916436,10,1,13,2,238
49.16705451357695,10,1,13,3,242
51.220445547210794,10,1,13,4,246
52.571752728194234,10,1,13,5,250
53.80389052632718,10,1,13,6,254
54.94328481089367,10,1,13,7,2
56.081702879900654,10,1,13,8,6
57.247661082948675,10,1,13,9,10
58.69287792676405,10,1,13,10,14
60.70577720294836,10,1,13,11,18
64.97377687981178,10,1,13,12,22
109.49688920720384,10,1,13,13,26
62.13399493014067,10,1,13,14,30
54.87609618821097,10,1,13,15,34
47.511235999101395,10,1,13,16,38
44.47297772704059,10,1,14,2,46
48.27627051693832,10,1,14,3,50
50.0234535249148,10,1,14,4,54
51.12358070041467,10,1,14,5,58
52.09038720036802,10,1,14,6,62
52.96352892453436,10,1,14,7,66
53.78207243938019,10,1,14,8,70
54.56695483447011,10,1,14,9,74
55.529229006472434,10,1,14,10,78
56.67183014892438,10,1,14,11,82
58.3682212187417,10,1,14,12,86
62.160640804076465,10,1,14,13,90
105.63067673525451,10,1,14,14,94
58.22262795557051,10,1,14,15,98
48.36903679107427,10,1,14,16,102
43.633084608963856,10,1,15,2,110
46.91619444707313,10,1,15,3,114
48.26926860974034,10,1,15,4,118
49.099202474737226,10,1,15,5,122
49.78822281917928,10,1,15,6,126
50.41044967185675,10,1,15,7,130
50.96956838755482,10,1,15,8,134
51.45611298920142,10,1,15,9,138
52.01198334162632,10,1,15,10,142
52.659658833624064,10,1,15,11,146
53.534271451787134,10,1,15,12,150
54.88454206725005,10,1,15,13,154
58.233991011136695,10,1,15,14,158
100.91326653767891,10,1,15,15,162
50.82295827738323,10,1,15,16,166
41.145452076661336,10,1,16,2,174
43.553830431340124,10,1,16,3,178
44.42151777061836,10,1,16,4,182
44.85779905009631,10,1,16,5,186
45.29701048338061,10,1,16,6,190
45.59733824916249,10,1,16,7,194
45.8655793404042,10,1,16,8,198
46.089681314591495,10,1,16,9,202
46.33850486657915,10,1,16,10,206
46.60216320805374,10,1,16,11,210
46.989282373678066,10,1,16,12,214
47.477838245642,10,1,16,13,218
48.37759530577821,10,1,16,14,222
50.80743261121585,10,1,16,15,226
90.65209777684815,10,1,16,16,230
39.99357680052944,10,2,3,1,238
92.06603442436943,10,2,3,3,242
49.62074133745892,10,2,3,4,246
47.35816859809301,10,2,3,5,250
46.7006910477181,10,2,3,6,254
45.801314491831576,10,2,3,7,2
46.15480902382951,10,2,3,8,6
45.19000535157469,10,2,3,9,10
45.600355919540085,10,2,3,10,14
45.33878397309715,10,2,3,11,18
44.88610776960985,10,2,3,12,22
44.713444768423834,10,2,3,13,26
44.426387313474606,10,2,3,14,30
43.85414706983438,10,2,3,15,34
42.53189951366405,10,2,3,16,38
42.50981907745329,10,2,4,1,46
50.205702984418544,10,2,4,3,50
102.91192591943846,10,2,4,4,54
57.75247089958421,10,2,4,5,58
54.52325250057655,10,2,4,6,62
52.43249334367555,10,2,4,7,66
52.180340118723805,10,2,4,8,70
50.829137089772516,10,2,4,9,74
50.974487054557635,10,2,4,10,78
50.45813775459712,10,2,4,11,82
49.872334959420286,10,2,4,12,86
49.34276414523371,10,2,4,13,90
48.747059904011685,10,2,4,14,94
47.71433940447274,10,2,4,15,98
45.75492763682867,10,2,4,16,102
43.323803413607855,10,2,5,1,110
47.90505898850104,10,2,5,3,114
57.79670832014344,10,2,5,4,118
103.60989696645322,10,2,5,5,122
61.38449241422359,10,2,5,6,126
56.975416966193684,10,2,5,7,130
55.941530809373816,10,2,5,8,134
54.14482403971002,10,2,5,9,138
53.85025784465764,10,2,5,10,142
53.06898126698736,10,2,5,11,146
52.2480020784816,10,2,5,12,150
51.50560553887591,10,2,5,13,154
50.63173843669354,10,2,5,14,158
49.38712304884503,10,2,5,15,162
47.1596981750299,10,2,5,16,166
43.9012599742008,10,2,6,1,174
47.00195754224671,10,2,6,3,178
54.00085617095019,10,2,6,4,182
60.850791865026956,10,2,6,5,186
109.94075990263109,10,2,6,6,190
63.55017870002417,10,2,6,7,194
60.09110809020278,10,2,6,8,198
57.6444618688411,10,2,6,9,202
56.63682987929504,10,2,6,10,206
55.41326855350794,10,2,6,11,210
54.261759286539906,10,2,6,12,214
53.310323316569956,10,2,6,13,218
52.13210142583878,10,2,6,14,222
50.68800159854876,10,2,6,15,226
48.29933276981022,10,2,6,16,230
44.25842743983154,10,2,7,1,238
46.391859686909775,10,2,7,3,242
52.472265083073694,10,2,7,4,246
57.01796370764575,10,2,7,5,250
64.17928473451285,10,2,7,6,254
112.02648333420103,10,2,7,7,2
66.20680294754278,10,2,7,8,6
61.13155579510506,10,2,7,9,10
59.3503846850388,10,2,7,10,14
57.69376561298732,10,2,7,11,18
56.173346820998916,10,2,7,12,22
54.857796354376525,10,2,7,13,26
53.37362421529465,10,2,7,14,30
51.61461129066399,10,2,7,15,34
48.68610402864931,10,2,7,16,38
44.63552504235859,10,2,8,1,46
46.06691999348116,10,2,8,3,50
51.563874111796245,10,2,8,4,54
55.277690001601805,10,2,8,5,58
59.875113810325,10,2,8,6,62
65.53808601372488,10,2,8,7,66
113.76640979808413,10,2,8,8,70
67.45335819859908,10,2,8,9,74
62.58925808450848,10,2,8,10,78
59.978028112669435,10,2,8,11,82
57.953199692354225,10,2,8,12,86
56.217771578950334,10,2,8,13,90
54.50455094826408,10,2,8,14,94
52.49357101099763,10,2,8,15,98
49.644190348234225,10,2,8,16,102
44.87410377501187,10,2,9,1,110
45.76420820616144,10,2,9,3,114
50.90269967928438,10,2,9,4,118
54.179206613030885,10,2,9,5,122
57.83725746677019,10,2,9,6,126
61.0708926970593,10,2,9,7,130
67.68261946992152,10,2,9,8,134
111.95733271040098,10,2,9,9,138
67.68261946992152,10,2,9,10,142
62.79222875955789,10,2,9,11,146
59.86349630899269,10,2,9,12,150
57.67424956257682,10,2,9,13,154
55.54338661667157,10,2,9,14,158
53.277445253473815,10,2,9,15,162
50.193475136622,10,2,9,16,166
45.13459602470879,10,2,10,1,174
45.50671076128453,10,2,10,3,178
50.30292221162332,10,2,10,4,182
53.23184645963985,10,2,10,5,186
56.31947269627252,10,2,10,6,190
58.63969475118566,10,2,10,7,194
62.58815385940626,10,2,10,8,198
67.45335819859908,10,2,10,9,202
113.25224519068217,10,2,10,10,206
68.08890433764377,10,2,10,11,210
62.575176261752446,10,2,10,12,214
59.43771817122569,10,2,10,13,218
56.770902572824646,10,2,10,14,222
54.10604597186228,10,2,10,15,226
50.68700749552769,10,2,10,16,230
45.36653504937959,10,2,11,1,238
45.23415596037254,10,2,11,3,242
49.781061762152085,10,2,11,4,246
52.440157911339476,10,2,11,5,250
55.15160180887374,10,2,11,6,254
56.95133866788374,10,2,11,7,2
59.98578865127208,10,2,11,8,6
62.47875704302619,10,2,11,9,10
68.08603049142097,10,2,11,10,14
114.26602857442451,10,2,11,11,18
67.17121249780493,10,2,11,12,22
61.66854752763288,10,2,11,13,26
58.18218889237498,10,2,11,14,30
55.02860539701995,10,2,11,15,34
51.25120031650444,10,2,11,16,38
45.702269780988885,10,2,12,1,46
45.012649176610715,10,2,12,3,50
49.25276133653857,10,2,12,4,54
51.65141733287189,10,2,12,5,58
54.088463153526845,10,2,12,6,62
55.49473629476698,10,2,12,7,66
57.998583673733776,10,2,12,8,70
59.57637197125533,10,2,12,9,74
62.57112886950347,10,2,12,10,78
67.19686519829693,10,2,12,11,82
111.99589974721243,10,2,12,12,86
66.2423838154214,10,2,12,13,90
60.208142366863065,10,2,12,14,94
56.196402114759245,10,2,12,15,98
51.902881323321516,10,2,12,16,102
46.055429651230064,10,2,13,1,110
44.70503974530381,10,2,13,3,114
48.67980633997164,10,2,13,4,118
50.86529887368044,10,2,13,5,122
53.04249934743624,10,2,13,6,126
54.14193142390671,10,2,13,7,130
56.2095073951327,10,2,13,8,134
57.257119335113856,10,2,13,9,138
59.42618553727977,10,2,13,10,142
61.65150593625137,10,2,13,11,146
66.18961666612033,10,2,13,12,150
111.17568546286992,10,2,13,13,154
64.27541737895112,10,2,13,14,158
57.89283433858542,10,2,13,15,162
52.77407414845899,10,2,13,16,166
46.56316703026223,10,2,14,1,174
44.337867438106656,10,2,14,3,178
48.00405316709942,10,2,14,4,182
49.97782037455951,10,2,14,5,186
51.809005320669556,10,2,14,6,190
52.68382396252896,10,2,14,7,194
54.494637674286565,10,2,14,8,198
55.06728223815331,10,2,14,9,202
56.79975479852865,10,2,14,10,206
58.1510670227506,10,2,14,11,210
60.16754272616698,10,2,14,12,214
64.26294877084688,10,2,14,13,218
108.36290171689572,10,2,14,14,222
61.7691082003445,10,2,14,15,226
54.193845880026565,10,2,14,16,230
47.464165727483454,10,2,15,1,238
43.848959973067785,10,2,15,3,242
47.172724257228616,10,2,15,4,246
48.788494199858164,10,2,15,5,250
50.389975440620816,10,2,15,6,254
51.01269377047432,10,2,15,7,2
52.50979294290793,10,2,15,8,6
52.760982340924286,10,2,15,9,10
54.1643725696494,10,2,15,10,14
55.011870021764594,10,2,15,11,18
56.164367470003626,10,2,15,12,22
57.909948615539136,10,2,15,13,26
61.79367979750196,10,2,15,14,30
105.32549826066357,10,2,15,15,34
57.50336004114262,10,2,15,16,38
49.9663130547671,10,2,16,1,46
42.95129486654681,10,2,16,3,50
45.743640693314894,10,2,16,4,54
47.09294256438261,10,2,16,5,58
48.257630771827,10,2,16,6,62
48.6680782172346,10,2,16,7,66
49.952689615227904,10,2,16,8,70
49.80729934940893,10,2,16,9,74
50.99832870790797,10,2,16,10,78
51.51788693240908,10,2,16,11,82
52.08372144018022,10,2,16,12,86
53.040232430829015,10,2,16,13,90
54.44340052505956,10,2,16,14,94
57.74935842947426,10,2,16,15,98
100.02480538951896,10,2,16,16,102
42.898867247059755,10,3,4,1,110
40.97943200600181,10,3,4,2,114
93.69071590980886,10,3,4,4,118
50.83326246169039,10,3,4,5,122
47.953887905101936,10,3,4,6,126
46.95822292137452,10,3,4,7,130
47.10583117494074,10,3,4,8,134
46.39132560283502,10,3,4,9,138
46.404103848381304,10,3,4,10,142
46.02390242109709,10,3,4,11,146
45.517777790675105,10,3,4,12,150
45.43867853619697,10,3,4,13,154
45.281325970586245,10,3,4,14,158
44.9764711770186,10,3,4,15,162
44.26193031131103,10,3,4,16,166
46.02997316525065,10,3,5,1,174
43.29032194733139,10,3,5,2,178
50.80654217691993,10,3,5,4,182
98.87342438373994,10,3,5,5,186
57.1060203778241,10,3,5,6,190
53.7832329659967,10,3,5,7,194
53.10888455930599,10,3,5,8,198
52.10079399845836,10,3,5,9,202
51.5477318100946,10,3,5,10,206
50.92655686950875,10,3,5,11,210
50.158675647300406,10,3,5,12,214
49.881336954062476,10,3,5,13,218
49.48431837905105,10,3,5,14,222
48.88845789917509,10,3,5,15,226
47.94938604280532,10,3,5,16,230
47.54592140244378,10,3,6,1,238
44.22370878869054,10,3,6,2,242
47.97255410213667,10,3,6,4,246
57.130087802299755,10,3,6,5,250
107.09112205068168,10,3,6,6,254
61.3363410622804,10,3,6,7,2
58.19319174045733,10,3,6,8,6
56.40899790802709,10,3,6,9,10
55.240090244653324,10,3,6,10,14
54.25997751365431,10,3,6,11,18
53.106801830229664,10,3,6,12,22
52.60380856692089,10,3,6,13,26
51.87664640086995,10,3,6,14,30
51.0525593195129,10,3,6,15,34
49.863944985298176,10,3,6,16,38
48.460071067989226,10,3,7,1,46
44.80591711094097,10,3,7,2,50
46.94078073475021,10,3,7,4,54
53.84014712775688,10,3,7,5,58
61.500694891396485,10,3,7,6,62
110.31785630031408,10,3,7,7,66
64.90135960946614,10,3,7,8,70
60.613858408464154,10,3,7,9,74
58.54327752200869,10,3,7,10,78
57.08599212665125,10,3,7,11,82
55.764793552566296,10,3,7,12,86
54.76773596971734,10,3,7,13,90
53.723802204359714,10,3,7,14,94
52.597963495662,10,3,7,15,98
51.01831261125332,10,3,7,16,102
49.16231106947707,10,3,8,1,110
45.174878261363816,10,3,8,2,114
46.39229885069958,10,3,8,4,118
52.45596017098363,10,3,8,5,122
57.517368834092856,10,3,8,6,126
64.2400109929224,10,3,8,7,130
112.75831543097252,10,3,8,8,134
67.04559196511964,10,3,8,9,138
62.15990290900721,10,3,8,10,142
59.704566659706074,10,3,8,11,146
57.76903987017591,10,3,8,12,150
56.47161344716008,10,3,8,13,154
55.18569069781073,10,3,8,14,158
53.821023013480534,10,3,8,15,162
52.08577585445125,10,3,8,16,166
49.6970082120361,10,3,9,1,174
45.37993015995111,10,3,9,2,178
46.02768102549385,10,3,9,4,182
51.614574317733904,10,3,9,5,186
55.85746517777181,10,3,9,6,190
60.09732451662414,10,3,9,7,194
67.01338724608325,10,3,9,8,198
111.63777355954052,10,3,9,9,202
67.55694505893003,10,3,9,10,206
62.80003424204567,10,3,9,11,210
59.99117550148725,10,3,9,12,214
58.16653326377805,10,3,9,13,218
56.57305586801617,10,3,9,14,222
54.86406002902741,10,3,9,15,226
52.89012497941393,10,3,9,16,230
50.237595079331264,10,3,10,1,238
45.64092020964109,10,3,10,2,242
45.72896314893345,10,3,10,4,246
50.923235130956414,10,3,10,5,250
54.60942085635751,10,3,10,6,254
57.88257998868496,10,3,10,7,2
62.17603200060134,10,3,10,8,6
67.5700548162454,10,3,10,9,10
113.43602756944344,10,3,10,10,14
68.4459753311663,10,3,10,11,18
63.011167042852904,10,3,10,12,22
60.268910019068066,10,3,10,13,26
58.09558027460345,10,3,10,14,30
55.97453613573999,10,3,10,15,34
53.696419244971636,10,3,10,16,38
50.76175275958142,10,3,11,1,46
45.885898011099776,10,3,11,2,50
45.47358236477568,10,3,11,4,54
50.377517767926,10,3,11,5,58
53.707429412905356,10,3,11,6,62
56.451073012436886,10,3,11,7,66
59.82991523252976,10,3,11,8,70
62.91531386064221,10,3,11,9,74
68.50029701067263,10,3,11,10,78
114.89897791670687,10,3,11,11,82
67.9657249846204,10,3,11,12,86
62.82662953087807,10,3,11,13,90
59.7200170450527,10,3,11,14,94
57.12249021679987,10,3,11,15,98
54.445457284819106,10,3,11,16,102
51.32407994856709,10,3,12,1,110
46.18460000358094,10,3,12,2,114
45.19974691550703,10,3,12,4,118
49.87975654237234,10,3,12,5,122
52.90095672364083,10,3,12,6,126
55.25970450168305,10,3,12,7,130
58.108863732528114,10,3,12,8,134
60.29536102701628,10,3,12,9,138
63.263836857352985,10,3,12,10,142
68.08824866432187,10,3,12,11,146
113.18357180667859,10,3,12,12,150
67.66394969289274,10,3,12,13,154
62.031406713988254,10,3,12,14,158
58.54615696672835,10,3,12,15,162
55.444478538934376,10,3,12,16,166
51.98574739747682,10,3,13,1,174
46.489244151630395,10,3,13,2,178
44.950387770729456,10,3,13,4,182
49.402789213333214,10,3,13,5,186
52.15890795780593,10,3,13,6,190
54.15981272393342,10,3,13,7,194
56.641771386495535,10,3,13,8,198
58.32463997432345,10,3,13,9,202
60.3748772104696,10,3,13,10,206
62.81628412790811,10,3,13,11,210
67.51836540763946,10,3,13,12,214
112.91326825490772,10,3,13,13,218
66.3959797094941,10,3,13,14,222
60.563244643978756,10,3,13,15,226
56.5707035351447,10,3,13,16,230
52.83766287379295,10,3,14,1,238
46.82361292600083,10,3,14,2,242
44.63784182954217,10,3,14,4,246
48.82268531654168,10,3,14,5,250
51.313216886305895,10,3,14,6,254
53.06540939973745,10,3,14,7,2
55.22182210821857,10,3,14,8,6
56.55972784189534,10,3,14,9,10
58.04729885537603,10,3,14,10,14
59.60691732166632,10,3,14,11,18
61.745205023226866,10,3,14,12,22
66.32591814460093,10,3,14,13,26
110.81599602061905,10,3,14,14,30
64.81399617573442,10,3,14,15,34
58.312294389262675,10,3,14,16,38
54.193392551169076,10,3,15,1,46
47.294207374896274,10,3,15,2,50
44.272732848611234,10,3,15,4,54
48.207121063985845,10,3,15,5,58
50.40602346928263,10,3,15,6,62
51.87191127000161,10,3,15,7,66
53.720328069763546,10,3,15,8,70
54.78014755390281,10,3,15,9,74
55.90239481192375,10,3,15,10,78
56.975256756787886,10,3,15,11,82
58.23371162431236,10,3,15,12,86
60.397946401431895,10,3,15,13,90
64.75575186340285,10,3,15,14,94
108.82441007694803,10,3,15,15,98
62.04892512681106,10,3,15,16,102
57.565100291247695,10,3,16,1,110
48.14059515258555,10,3,16,2,114
43.742304789119785,10,3,16,4,118
47.31987424820663,10,3,16,5,122
49.25240981463579,10,3,16,6,126
50.417517594059134,10,3,16,7,130
52.04354469060351,10,3,16,8,134
52.824655664002776,10,3,16,9,138
53.62266242821998,10,3,16,10,142
54.30760442463315,10,3,16,11,146
54.91648635947574,10,3,16,12,150
56.34670942732597,10,3,16,13,154
58.2376284477089,10,3,16,14,158
62.06752799904966,10,3,16,15,162
105.29270232097659,10,3,16,16,166
44.71607229379595,10,4,5,1,174
43.845506166598675,10,4,5,2,178
41.576452471465394,10,4,5,3,182
89.57884644949509,10,4,5,5,186
50.57597978295672,10,4,5,6,190
48.70641761090392,10,4,5,7,194
47.54171757348312,10,4,5,8,198
47.10320250544408,10,4,5,9,202
46.76077765320187,10,4,5,10,206
46.418387399842004,10,4,5,11,210
46.154190823789534,10,4,5,12,214
45.91425378617197,10,4,5,13,218
45.75790080677187,10,4,5,14,222
45.508596794477064,10,4,5,15,226
45.15139042377671,10,4,5,16,230
49.04023100750643,10,4,6,1,238
47.6020451911054,10,4,6,2,242
44.41802306010652,10,4,6,3,246
50.62322213542614,10,4,6,5,250
102.96775293879931,10,4,6,6,254
59.1312090505247,10,4,6,7,2
55.47473975466005,10,4,6,8,6
54.18378416201295,10,4,6,9,10
53.26852332996835,10,4,6,10,14
52.606962326141016,10,4,6,11,18
51.985594810751344,10,4,6,12,22
51.523761964205725,10,4,6,13,26
51.05166828415165,10,4,6,14,30
50.52243592397715,10,4,6,15,34
49.875542724955814,10,4,6,16,38
50.93021438746342,10,4,7,1,46
49.14636070098246,10,4,7,2,50
45.38942948863013,10,4,7,3,54
48.3115157145079,10,4,7,5,58
58.585655005656754,10,4,7,6,62
109.23200147411664,10,4,7,7,66
63.13841022761351,10,4,7,8,70
59.398156383681986,10,4,7,9,74
57.51919097731216,10,4,7,10,78
56.34179825091109,10,4,7,11,82
55.35062275403723,10,4,7,12,86
54.55365094723508,10,4,7,13,90
53.82655286925794,10,4,7,14,94
53.03567729165571,10,4,7,15,98
52.12347003874854,10,4,7,16,102
52.154272423864484,10,4,8,1,110
50.08855476587077,10,4,8,2,114
45.9463450610242,10,4,8,3,118
47.45122684881937,10,4,8,5,122
55.39089747279247,10,4,8,6,126
63.609656172826085,10,4,8,7,130
111.52724668680038,10,4,8,8,134
66.21506460963758,10,4,8,9,138
61.67456762858026,10,4,8,10,142
59.5864421344816,10,4,8,11,146
58.047895874798655,10,4,8,12,150
56.92752906728012,10,4,8,13,154
55.828575240716326,10,4,8,14,158
54.77984571243769,10,4,8,15,162
53.56558189721854,10,4,8,16,166
53.08621318963076,10,4,9,1,174
50.73183260388165,10,4,9,2,178
46.32858835186148,10,4,9,3,182
47.01486152338641,10,4,9,5,186
54.07739044925551,10,4,9,6,190
59.798188171185906,10,4,9,7,194
66.21389753359678,10,4,9,8,198
111.13426926746887,10,4,9,9,202
67.47115229929922,10,4,9,10,206
63.062865279785676,10,4,9,11,210
60.6188457653103,10,4,9,12,214
59.01443029491734,10,4,9,13,218
57.57176871454063,10,4,9,14,222
56.22128696243069,10,4,9,15,226
54.78338886663023,10,4,9,16,230
53.9743052764123,10,4,10,1,238
51.31492271040206,10,4,10,2,242
46.64239410401388,10,4,10,3,246
46.66678344672032,10,4,10,5,250
53.12575121936196,10,4,10,6,254
58.00201355003839,10,4,10,7,2
61.65107197659363,10,4,10,8,6
67.43199499787585,10,4,10,9,10
113.56353350868936,10,4,10,10,14
68.93465836082363,10,4,10,11,18
63.91474778066963,10,4,10,12,22
61.38609332380203,10,4,10,13,26
59.37456374791035,10,4,10,14,30
57.640346215598825,10,4,10,15,34
55.89313415640446,10,4,10,16,38
54.73043852885896,10,4,11,1,46
51.842052960050296,10,4,11,2,50
46.92017715417525,10,4,11,3,54
46.375572986323014,10,4,11,5,58
52.5292940749966,10,4,11,6,62
56.8399426327305,10,4,11,7,66
59.61658603216999,10,4,11,8,70
63.055279943969175,10,4,11,9,74
68.98758959845244,10,4,11,10,78
115.60091616595453,10,4,11,11,82
69.06791557127866,10,4,11,12,86
64.13979952350302,10,4,11,13,90
61.30603614849788,10,4,11,14,94
59.047062908781875,10,4,11,15,98
56.95063414329421,10,4,11,16,102
55.59242435315161,10,4,12,1,110
52.366750075172696,10,4,12,2,114
47.182015037611734,10,4,12,3,118
46.122534754098254,10,4,12,5,122
51.952374733982516,10,4,12,6,126
55.91968622574958,10,4,12,7,130
58.121364484166705,10,4,12,8,134
60.69312498956934,10,4,12,9,138
63.963637872080035,10,4,12,10,142
69.1156510342709,10,4,12,11,146
114.42781333957308,10,4,12,12,150
69.2343108341956,10,4,12,13,154
63.83112217152534,10,4,12,14,158
60.73257779239358,10,4,12,15,162
58.12512502582164,10,4,12,16,166
56.47434826811687,10,4,13,1,174
52.925827681570794,10,4,13,2,178
47.43126075751826,10,4,13,3,182
45.93903126887788,10,4,13,5,186
51.440371602977976,10,4,13,6,190
55.089067579493836,10,4,13,7,194
56.94594508810386,10,4,13,8,198
59.04115960918254,10,4,13,9,202
61.39909193288725,10,4,13,10,206
64.13979952350302,10,4,13,11,210
69.19923206419053,10,4,13,12,214
114.70430321627956,10,4,13,13,218
68.51089489681304,10,4,13,14,222
63.01468611759494,10,4,13,15,226
59.51860166094526,10,4,13,16,230
57.641362478087416,10,4,14,1,238
53.61720436584458,10,4,14,2,242
47.73003481745388,10,4,14,3,246
45.66823579638491,10,4,14,5,250
50.96106552334499,10,4,14,6,254
54.30169115525498,10,4,14,7,2
55.85737922559287,10,4,14,8,6
57.60569468053733,10,4,14,9,10
59.428196700370826,10,4,14,10,14
61.294137903748776,10,4,14,11,18
63.8258670013513,10,4,14,12,22
68.53713640647638,10,4,14,13,26
113.1893491393338,10,4,14,14,30
67.57323259878163,10,4,14,15,34
61.60256589480239,10,4,14,16,38
59.38283920411962,10,4,15,1,46
54.487168342168474,10,4,15,2,50
48.12336062721635,10,4,15,3,54
45.39964933191578,10,4,15,5,58
50.38691304529832,10,4,15,6,62
53.45977968350905,10,4,15,7,66
54.76811373805065,10,4,15,8,70
56.23318862086624,10,4,15,9,74
57.67601242569579,10,4,15,10,78
59.021024298934584,10,4,15,11,82
60.68420218085583,10,4,15,12,86
62.98320613577658,10,4,15,13,90
67.56449035688259,10,4,15,14,94
111.9515971957025,10,4,15,15,98
65.74170785538118,10,4,15,16,102
63.238882560938556,10,4,16,1,110
55.82496448836017,10,4,16,2,114
48.63959790910382,10,4,16,3,118
45.046932803937345,10,4,16,5,122
49.766607754795466,10,4,16,6,126
52.59011914680719,10,4,16,7,130
53.576583676520144,10,4,16,8,134
54.79328126830958,10,4,16,9,138
55.87768965798176,10,4,16,10,142
56.92752906728012,10,4,16,11,146
58.04687274948885,10,4,16,12,150
59.54422368546371,10,4,16,13,154
61.580473840993804,10,4,16,14,158
65.7235419801158,10,4,16,15,162
109.43230316733715,10,4,16,16,166
41.85890899396192,10,5,6,1,174
41.34159863739255,10,5,6,2,178
40.326153241854854,10,5,6,3,182
37.444597855812994,10,5,6,4,186
89.79200735250886,10,5,6,6,190
47.8623296049998,10,5,6,7,194
45.519317331346535,10,5,6,8,198
44.55345671176514,10,5,6,9,202
44.07553727317852,10,5,6,10,206
43.69437469184547,10,5,6,11,210
43.39036758369984,10,5,6,12,214
43.12671855684881,10,5,6,13,218
42.865072447207986,10,5,6,14,222
42.5582995098267,10,5,6,15,226
42.198551620117854,10,5,6,16,230
46.080258944323276,10,5,7,1,238
45.1709273919134,10,5,7,2,242
43.63371278746202,10,5,7,3,246
39.79836469360004,10,5,7,4,250
47.90645885380038,10,5,7,6,254
100.09181234424838,10,5,7,7,2
55.46799177310385,10,5,7,8,6
52.062906090213325,10,5,7,9,10
50.63352670384608,10,5,7,10,14
49.72037129485751,10,5,7,11,18
49.05866823725045,10,5,7,12,22
48.49274163130656,10,5,7,13,26
47.9244939048871,10,5,7,14,30
47.35456117152401,10,5,7,15,34
46.74579286492584,10,5,7,16,38
48.14263111400063,10,5,8,1,46
46.9385017255511,10,5,8,2,50
45.018741155789016,10,5,8,3,54
40.606988652153056,10,5,8,4,58
45.4548461282862,10,5,8,6,62
55.435026609258934,10,5,8,7,66
104.66914639411011,10,5,8,8,70
59.768837057744676,10,5,8,9,74
55.620266490589835,10,5,8,10,78
53.83174248128213,10,5,8,11,82
52.57909578311772,10,5,8,12,86
51.60825529183242,10,5,8,13,90
50.77742033973984,10,5,8,14,94
49.95323842577549,10,5,8,15,98
49.07942090591279,10,5,8,16,102
49.5624547944799,10,5,9,1,110
48.0763284174774,10,5,9,2,114
45.85206024199605,10,5,9,3,118
41.047175986470954,10,5,9,4,122
44.58183963987399,10,5,9,6,126
52.12804597560055,10,5,9,7,130
59.768837057744676,10,5,9,8,134
105.22989603149117,10,5,9,9,138
61.85238604716186,10,5,9,10,142
57.757021142495205,10,5,9,11,146
55.66723547603988,10,5,9,12,150
54.1805067809583,10,5,9,13,154
52.96222775695807,10,5,9,14,158
51.863236359801974,10,5,9,15,162
50.73857762937177,10,5,9,16,166
50.79473040173522,10,5,10,1,174
48.96687498300048,10,5,10,2,178
46.51661066220242,10,5,10,3,182
41.404647878501365,10,5,10,4,186
44.06645321797918,10,5,10,6,190
50.61925688663218,10,5,10,7,194
55.59093774943727,10,5,10,8,198
61.82963522198142,10,5,10,9,202
108.33527917583521,10,5,10,10,206
63.97681328322971,10,5,10,11,210
59.25942141329964,10,5,10,12,214
56.90239525535402,10,5,10,13,218
55.15281715242507,10,5,10,14,222
53.67264899967903,10,5,10,15,226
52.23942408404203,10,5,10,16,230
51.81662040834326,10,5,11,1,238
49.8027169938642,10,5,11,2,242
47.059411119392216,10,5,11,3,246
41.68179363726163,10,5,11,4,250
43.69457061087488,10,5,11,6,254
49.719993817647634,10,5,11,7,2
53.829621432641616,10,5,11,8,6
57.70000986388329,10,5,11,9,10
63.993363119933335,10,5,11,10,14
110.89741891936413,10,5,11,11,18
64.64400519765691,10,5,11,12,22
59.92628569923731,10,5,11,13,26
57.314570546847655,10,5,11,14,30
55.357985876609256,10,5,11,15,34
53.56559349151871,10,5,11,16,38
52.89972864322368,10,5,12,1,46
50.54141555830921,10,5,12,2,50
47.5760594613447,10,5,12,3,54
41.93060008926506,10,5,12,4,58
43.35099397930086,10,5,12,6,62
49.056725300629765,10,5,12,7,66
52.59498924711005,10,5,12,8,70
55.60629915015723,10,5,12,9,74
59.26813036301746,10,5,12,10,78
64.63982474340546,10,5,12,11,82
110.20500723637704,10,5,12,12,86
65.24944904575163,10,5,12,13,90
60.146472357874664,10,5,12,14,94
57.31187502772607,10,5,12,15,98
54.966496040204945,10,5,12,16,102
54.0426309193069,10,5,13,1,110
51.342033637367166,10,5,13,2,114
48.07023028298909,10,5,13,3,118
42.16058846912429,10,5,13,4,122
43.086018709045874,10,5,13,6,126
48.45444649166345,10,5,13,7,130
51.647702792873204,10,5,13,8,134
54.125715323609235,10,5,13,9,138
56.92180033851892,10,5,13,10,142
59.92522863358576,10,5,13,11,146
65.25904036097866,10,5,13,12,150
110.9251796095365,10,5,13,13,154
64.99290484268575,10,5,13,14,158
59.79872158798016,10,5,13,15,162
56.616992754169,10,5,13,16,166
55.48330570974419,10,5,14,1,174
52.25048016596947,10,5,14,2,178
48.62354699625831,10,5,14,3,182
42.422832379738004,10,5,14,4,186
42.84454069625933,10,5,14,6,190
47.920510609205856,10,5,14,7,194
50.76990016353427,10,5,14,8,198
52.90314982971955,10,5,14,9,202
55.12922823036445,10,5,14,10,206
57.314570546847655,10,5,14,11,210
60.111591068802156,10,5,14,12,214
64.98449882851395,10,5,14,13,218
109.93348700341362,10,5,14,14,222
64.59996662163809,10,5,14,15,226
58.9192128597038,10,5,14,16,230
57.496203269741855,10,5,15,1,238
53.38892908343521,10,5,15,2,242
49.281936663250626,10,5,15,3,246
42.71206095015496,10,5,15,4,250
42.55256571585264,10,5,15,6,254
47.361882609716986,10,5,15,7,2
49.98730604615291,10,5,15,8,6
51.813269486468606,10,5,15,9,10
53.64169609444394,10,5,15,10,14
55.34984978706193,10,5,15,11,18
57.27105534058376,10,5,15,12,22
59.80186606086501,10,5,15,13,26
64.59882726228147,10,5,15,14,30
109.23273520711768,10,5,15,15,34
63.32685621742471,10,5,15,16,38
61.71521770151346,10,5,16,1,46
55.11756224624575,10,5,16,2,50
50.13660515024074,10,5,16,3,54
43.021013324708804,10,5,16,4,58
42.202065185157274,10,5,16,6,62
46.744822406959415,10,5,16,7,66
49.100191112366176,10,5,16,8,70
50.7062068188537,10,5,16,9,74
52.242801840873724,10,5,16,10,78
53.594979269200046,10,5,16,11,82
55.0007860102479,10,5,16,12,86
56.64115562069877,10,5,16,13,90
58.95956157036107,10,5,16,14,94
63.371433616312615,10,5,16,15,98
107.4273338484589,10,5,16,16,102
44.674902338525996,10,6,7,1,110
44.29514292054544,10,6,7,2,114
43.78111348050516,10,6,7,3,118
42.83390049873372,10,6,7,4,122
40.50496662648593,10,6,7,5,126
92.76966118669107,10,6,7,7,130
50.45644799746951,10,6,7,8,134
48.011242630658394,10,6,7,9,138
47.05930956929071,10,6,7,10,142
46.53042815596339,10,6,7,11,146
46.666055569402076,10,6,7,12,150
46.136383909115295,10,6,7,13,154
45.53711823531292,10,6,7,14,158
45.275627218490555,10,6,7,15,162
45.011197282205785,10,6,7,16,166
49.16796975276808,10,6,8,1,174
48.49148337882654,10,6,8,2,178
47.57895594114951,10,6,8,3,182
46.04721604889801,10,6,8,4,186
42.89541928859039,10,6,8,5,190
50.48770407443483,10,6,8,7,194
102.74923432259456,10,6,8,8,198
58.06882644130077,10,6,8,9,202
54.80556328433203,10,6,8,10,206
53.60230181615073,10,6,8,11,210
52.77905768057151,10,6,8,12,214
51.997927955477046,10,6,8,13,218
51.23039762042121,10,6,8,14,222
50.277199053653376,10,6,8,15,226
49.74691795789574,10,6,8,16,230
51.428353758259256,10,6,9,1,238
50.844109703035556,10,6,9,2,242
49.28040642130679,10,6,9,3,246
47.40157521598712,10,6,9,4,250
43.78034508768704,10,6,9,5,254
48.01399400272312,10,6,9,7,2
58.65132719948991,10,6,9,8,6
104.74783085197632,10,6,9,9,10
62.052726327338654,10,6,9,10,14
58.39914030369557,10,6,9,11,18
56.666947224749116,10,6,9,12,22
55.449698172902316,10,6,9,13,26
54.34088323884294,10,6,9,14,30
53.06868954801469,10,6,9,15,34
52.24510714334263,10,6,9,16,38
53.18056947989654,10,6,10,1,46
52.351456634298664,10,6,10,2,50
50.48346785226965,10,6,10,3,54
48.29833831019722,10,6,10,4,58
44.32780063413813,10,6,10,5,62
47.0808265935471,10,6,10,7,66
55.03888839500906,10,6,10,8,70
61.53505921585084,10,6,10,9,74
109.18700296660444,10,6,10,10,78
65.22032515703845,10,6,10,11,82
60.82411601030089,10,6,10,12,86
58.69252309258519,10,6,10,13,90
57.103168472172364,10,6,10,14,94
55.367733566855826,10,6,10,15,98
54.26951581858615,10,6,10,16,102
54.606277996221394,10,6,11,1,110
53.45499498579396,10,6,11,2,114
51.37051805736687,10,6,11,3,118
48.93537900537917,10,6,11,4,122
44.6847127746799,10,6,11,5,126
46.56478222312116,10,6,11,7,130
53.561694308332946,10,6,11,8,134
57.78394394985263,10,6,11,9,138
65.11121880271016,10,6,11,10,142
112.49872006317658,10,6,11,11,146
66.60409109158076,10,6,11,12,150
62.117696852798424,10,6,11,13,154
59.667048456664354,10,6,11,14,158
57.42442212604506,10,6,11,15,162
55.95357401025424,10,6,11,16,166
55.95719304252354,10,6,12,1,174
54.58958184501,10,6,12,2,178
52.209256659478484,10,6,12,3,182
49.4941657229126,10,6,12,4,186
44.98992309482041,10,6,12,5,190
46.18432805998879,10,6,12,7,194
52.63428393558052,10,6,12,8,198
55.983227815407254,10,6,12,9,202
60.62058559230645,10,6,12,10,206
66.55098942111377,10,6,12,11,210
112.49292664817456,10,6,12,12,214
67.74778671872757,10,6,12,13,218
62.806321835010394,10,6,12,14,222
59.70571345400782,10,6,12,15,226
57.68838557796257,10,6,12,16,230
57.39591104422953,10,6,13,1,238
55.64847177195998,10,6,13,2,242
52.95865817531974,10,6,13,3,246
49.98131525795537,10,6,13,4,250
45.26284679222371,10,6,13,5,254
45.885817409457026,10,6,13,7,2
51.95285719777463,10,6,13,8,6
54.82605678048255,10,6,13,9,10
58.52282834164193,10,6,13,10,14
62.11330182967956,10,6,13,11,18
67.76213014012855,10,6,13,12,22
113.75484011776668,10,6,13,13,26
67.96968359146274,10,6,13,14,30
62.45700180860613,10,6,13,15,34
59.581974058462464,10,6,13,16,38
59.101261888927326,10,6,14,1,46
56.88068509770519,10,6,14,2,50
53.77962058259001,10,6,14,3,54
50.50810868190275,10,6,14,4,58
45.56518931129344,10,6,14,5,62
45.582143617166935,10,6,14,7,66
51.3842134917201,10,6,14,8,70
53.89846581599313,10,6,14,9,74
56.999534606166314,10,6,14,10,78
59.729061501912874,10,6,14,11,82
62.917856038963194,10,6,14,12,86
68.05808934107961,10,6,14,13,90
113.219806281991,10,6,14,14,94
67.56744418813953,10,6,14,15,98
62.193061496078045,10,6,14,16,102
61.36553829048881,10,6,15,1,110
58.31001122753647,10,6,15,2,114
54.690005835224106,10,6,15,3,118
51.027654884163425,10,6,15,4,122
45.8360955587978,10,6,15,5,126
45.31635563962748,10,6,15,7,130
50.854201316771096,10,6,15,8,134
53.036917462983396,10,6,15,9,138
55.820590221922345,10,6,15,10,142
58.02001720715891,10,6,15,11,146
60.35199894410039,10,6,15,12,150
63.080589269638274,10,6,15,13,154
68.06129144364269,10,6,15,14,158
113.05249006392073,10,6,15,15,162
66.86948148274928,10,6,15,16,166
65.94547819755161,10,6,16,1,174
60.40880085192532,10,6,16,2,178
55.86432591717662,10,6,16,3,182
51.68264200513473,10,6,16,4,186
46.13085009840367,10,6,16,5,190
45.04845821221349,10,6,16,7,194
50.330695542080264,10,6,16,8,198
52.25221679104831,10,6,16,9,202
54.71284993326965,10,6,16,10,206
56.57139457181625,10,6,16,11,210
58.38680009054798,10,6,16,12,214
60.29485411027145,10,6,16,13,218
62.73511213157938,10,6,16,14,222
67.05071839270742,10,6,16,15,226
111.77324099579867,10,6,16,16,230
45.45450638460054,10,7,8,1,238
45.09081237797418,10,7,8,2,242
44.69700404145571,10,7,8,3,246
44.747292804409206,10,7,8,4,250
43.29527175619555,10,7,8,5,254
40.809295252285516,10,7,8,6,2
92.52408539261702,10,7,8,8,6
51.00126434018002,10,7,8,9,10
48.31651683674233,10,7,8,10,14
47.394811113749526,10,7,8,11,18
46.78343800528803,10,7,8,12,22
46.48228643685663,10,7,8,13,26
46.17513786647571,10,7,8,14,30
45.92683475470495,10,7,8,15,34
45.66235545187725,10,7,8,16,38
50.10117247350334,10,7,9,1,46
49.53210681616412,10,7,9,2,50
48.86729274641195,10,7,9,3,54
48.49974792764399,10,7,9,4,58
46.591203498285644,10,7,9,5,62
43.269791070050076,10,7,9,6,66
50.96157579575717,10,7,9,8,70
99.75965749182323,10,7,9,9,74
57.826781832372156,10,7,9,10,78
54.666581526459126,10,7,9,11,82
53.22052964815258,10,7,9,12,86
52.35045303751059,10,7,9,13,90
51.70275019011132,10,7,9,14,94
51.13036293302115,10,7,9,15,98
50.614135620477825,10,7,9,16,102
52.83032077596703,10,7,10,1,110
51.959687902284635,10,7,10,2,114
51.04167398215868,10,7,10,3,118
50.35604911500988,10,7,10,4,122
48.115301834439556,10,7,10,5,126
44.2254005336818,10,7,10,6,130
48.31807074704161,10,7,10,8,134
57.88010780981985,10,7,10,9,138
105.8941286870792,10,7,10,10,142
62.42306044465577,10,7,10,11,146
58.31340117259392,10,7,10,12,150
56.52910324228499,10,7,10,13,154
55.403138371873965,10,7,10,14,158
54.449446463310544,10,7,10,15,162
53.6151776464626,10,7,10,16,166
54.7772460374658,10,7,11,1,174
53.63787034509309,10,7,11,2,178
52.42227725189867,10,7,11,3,182
51.52083567418949,10,7,11,4,186
49.0008660810824,10,7,11,5,190
44.761548855072675,10,7,11,6,194
47.388482418852774,10,7,11,8,198
54.671618826069654,10,7,11,9,202
62.449481091950915,10,7,11,10,206
110.2177045144393,10,7,11,11,210
64.62300594115472,10,7,11,12,214
60.4871833691398,10,7,11,13,218
58.43446586702415,10,7,11,14,222
57.00690229061018,10,7,11,15,226
55.82661337385846,10,7,11,16,230
56.52980652485385,10,7,12,1,238
55.129928715870726,10,7,12,2,242
53.644807965767605,10,7,12,3,246
52.47474622225612,10,7,12,4,250
49.669634365881684,10,7,12,5,254
45.162674804053744,10,7,12,6,2
46.86076534535803,10,7,12,8,6
53.2439104261132,10,7,12,9,10
58.398392850489394,10,7,12,10,14
64.63250448012369,10,7,12,11,18
110.9093045830327,10,7,12,12,22
66.56154529397062,10,7,12,13,26
61.98145763720296,10,7,12,14,30
59.6176010873005,10,7,12,15,34
57.96112157593181,10,7,12,16,38
58.242162453870414,10,7,13,1,46
56.49261213060467,10,7,13,2,50
54.744056379055365,10,7,13,3,54
53.27117032097911,10,7,13,4,58
50.289812202146734,10,7,13,5,62
45.439389993688664,10,7,13,6,66
46.4863086169179,10,7,13,8,70
52.38389457864353,10,7,13,9,74
56.62512357429617,10,7,13,10,78
60.50888086993633,10,7,13,11,82
66.48851499876537,10,7,13,12,86
112.81507399245572,10,7,13,13,90
67.41488330099827,10,7,13,14,94
62.73579676572016,10,7,13,15,98
60.16411735241005,10,7,13,16,102
60.2449251180769,10,7,14,1,110
57.93830541411316,10,7,14,2,114
55.84401322565578,10,7,14,3,118
54.06721140722083,10,7,14,4,122
50.81097071470847,10,7,14,5,126
45.692026283050495,10,7,14,6,130
46.182318559665035,10,7,14,8,134
51.72467512941478,10,7,14,9,138
55.353800635395714,10,7,14,10,142
58.45817728174806,10,7,14,11,146
61.90486566607738,10,7,14,12,150
67.41488330099827,10,7,14,13,154
112.8879582373496,10,7,14,14,158
68.05747558113428,10,7,14,15,162
63.00192458415941,10,7,14,16,166
62.779745741309554,10,7,15,1,174
59.63898830356239,10,7,15,2,178
57.02735294487123,10,7,15,3,182
54.89155191285116,10,7,15,4,186
51.34106833152553,10,7,15,5,190
45.97323442909955,10,7,15,6,194
45.922415097476076,10,7,15,8,198
51.15566461628677,10,7,15,9,202
54.442709421009084,10,7,15,10,206
57.02735294487123,10,7,15,11,210
59.637935992184495,10,7,15,12,214
62.701073335748035,10,7,15,13,218
68.06903451093265,10,7,15,14,222
113.24770038146706,10,7,15,15,226
67.97643629673225,10,7,15,16,230
67.5884881795898,10,7,16,1,238
61.95870484934835,10,7,16,2,242
58.45645833311971,10,7,16,3,246
55.80249555937956,10,7,16,4,250
51.94744868127789,10,7,16,5,254
46.26187439572091,10,7,16,6,2
45.61462337580819,10,7,16,8,6
50.63773481690007,10,7,16,9,10
53.60331659523871,10,7,16,10,14
55.791190047086694,10,7,16,11,18
57.888235691357245,10,7,16,12,22
60.16517881092156,10,7,16,13,26
63.00192458415941,10,7,16,14,30
67.97323849663915,10,7,16,15,34
112.62754086171486,10,7,16,16,38
44.90205079291848,10,8,9,1,46
45.23299697050129,10,8,9,2,50
44.298449416158476,10,8,9,3,54
43.95116555090581,10,8,9,4,58
43.4620679330348,10,8,9,5,62
43.17467278681858,10,8,9,6,66
40.15527605971542,10,8,9,7,70
89.27275811002855,10,8,9,9,74
50.34557929857425,10,8,9,10,78
48.089344415063486,10,8,9,11,82
47.18675963971352,10,8,9,12,86
46.740313810596206,10,8,9,13,90
46.27786989979937,10,8,9,14,94
45.627778055254446,10,8,9,15,98
45.12464791496982,10,8,9,16,102
50.28635982806807,10,8,10,1,110
50.38118650505775,10,8,10,2,114
49.3466439961821,10,8,10,3,118
48.46003208288568,10,8,10,4,122
47.66604015853487,10,8,10,5,126
46.847939498895734,10,8,10,6,130
42.86170157122444,10,8,10,7,134
49.690212310660776,10,8,10,9,138
101.05618193641423,10,8,10,10,142
58.47833276528761,10,8,10,11,146
54.99743657182148,10,8,10,12,150
53.61126369009858,10,8,10,13,154
52.68147757187333,10,8,10,14,158
51.71786239078211,10,8,10,15,162
50.766108798952054,10,8,10,16,166
53.115987169580016,10,8,11,1,174
52.94341773077355,10,8,11,2,178
51.79043383576501,10,8,11,3,182
50.53348010912524,10,8,11,4,186
49.444265809868234,10,8,11,5,190
48.267963837977845,10,8,11,6,194
43.76561123545908,10,8,11,7,198
47.365370302550375,10,8,11,9,202
58.46537072543461,10,8,11,10,206
107.21662762744799,10,8,11,11,210
62.16996598473905,10,8,11,12,214
58.42660127901843,10,8,11,13,218
56.637564916993234,10,8,11,14,222
55.233788734971014,10,8,11,15,226
53.84463359985635,10,8,11,16,230
55.43241399462478,10,8,12,1,238
54.92371472986335,10,8,12,2,242
53.533268331900814,10,8,12,3,246
51.99048082171482,10,8,12,4,250
50.71223065278861,10,8,12,5,254
49.18886561385981,10,8,12,6,2
44.29138578289973,10,8,12,7,6
46.5165729486053,10,8,12,9,10
54.940790106906114,10,8,12,10,14
62.143291172396424,10,8,12,11,18
109.01388927000048,10,8,12,12,22
64.94264898309693,10,8,12,13,26
60.67261026374802,10,8,12,14,30
58.47774169830656,10,8,12,15,34
56.55767078931596,10,8,12,16,38
57.500684753239796,10,8,13,1,46
56.71908608005182,10,8,13,2,50
55.04866227648868,10,8,13,3,54
53.17827197594012,10,8,13,4,58
51.64382548844718,10,8,13,5,62
49.86895278747087,10,8,13,6,66
44.66134892442345,10,8,13,7,70
46.03924257079154,10,8,13,9,74
53.52486827117508,10,8,13,10,78
58.414265407065315,10,8,13,11,82
64.96174008187204,10,8,13,12,86
111.6096029870637,10,8,13,13,90
66.49448397780937,10,8,13,14,94
61.9483150307477,10,8,13,15,98
59.1184101413201,10,8,13,16,102
59.82455316086397,10,8,14,1,110
58.47194023374802,10,8,14,2,114
56.48350007681345,10,8,14,3,118
54.284931523728616,10,8,14,4,122
52.5226685613233,10,8,14,5,126
50.42866883089757,10,8,14,6,130
44.97266908350349,10,8,14,7,134
45.65579595896088,10,8,14,9,138
52.65473156412168,10,8,14,10,142
56.63006102068486,10,8,14,11,146
60.65847010515604,10,8,14,12,150
66.50738678679556,10,8,14,13,154
112.29284126847331,10,8,14,14,158
67.62986651129673,10,8,14,15,162
62.452614232812174,10,8,14,16,166
62.62498236343125,10,8,15,1,174
60.40129188395143,10,8,15,2,178
57.9494510273303,10,8,15,3,182
55.378831748557964,10,8,15,4,186
53.322036509530896,10,8,15,5,190
50.978498778255286,10,8,15,6,194
45.240607957722084,10,8,15,7,198
45.35986557549965,10,8,15,9,202
51.969024530222974,10,8,15,10,206
55.45785821793958,10,8,15,11,210
58.61201816927478,10,8,15,12,214
62.09794830592743,10,8,15,13,218
67.73244393699505,10,8,15,14,222
113.17254761274688,10,8,15,15,226
67.83803301909963,10,8,15,16,230
67.72821615138642,10,8,16,1,238
63.02664351144907,10,8,16,2,242
59.7397820410445,10,8,16,3,246
56.59559893395556,10,8,16,4,250
54.159440834783,10,8,16,5,254
51.495312138389465,10,8,16,6,2
45.50644063372822,10,8,16,7,6
45.094835708758126,10,8,16,9,10
51.38935487469331,10,8,16,10,14
54.50455094826408,10,8,16,11,18
57.16744232998591,10,8,16,12,22
59.79158633740734,10,8,16,13,26
62.97271083905201,10,8,16,14,30
68.11590123958467,10,8,16,15,34
113.02417367167276,10,8,16,16,38
45.114416376767,10,9,10,1,46
44.85207682372245,10,9,10,2,50
45.1140484329821,10,9,10,3,54
44.24102515646004,10,9,10,4,58
43.897325158405906,10,9,10,5,62
43.372009371877674,10,9,10,6,66
42.364413945339194,10,9,10,7,70
39.74612245308687,10,9,10,8,74
90.99559961944018,10,9,10,10,78
50.18782200499085,10,9,10,11,82
47.50451121092484,10,9,10,12,86
46.63408727040337,10,9,10,13,90
46.06338377923793,10,9,10,14,94
46.21140616651112,10,9,10,15,98
46.0791871286005,10,9,10,16,102
50.27040944904823,10,9,11,1,110
49.74418386490415,10,9,11,2,114
49.79800874894762,10,9,11,3,118
48.61813222926367,10,9,11,4,122
47.996862223865826,10,9,11,5,126
47.121007777201804,10,9,11,6,130
45.59808500549216,10,9,11,7,134
42.106803775853,10,9,11,8,138
50.45893869099606,10,9,11,10,142
101.71231250190768,10,9,11,11,146
57.016133014217445,10,9,11,12,150
53.75536008707818,10,9,11,13,154
52.36525968698141,10,9,11,14,158
52.06057267322846,10,9,11,15,162
51.504638172540915,10,9,11,16,166
53.4700199327512,10,9,12,1,174
52.730874918257825,10,9,12,2,178
52.43675501605243,10,9,12,3,182
50.980350456432234,10,9,12,4,186
50.145214975194094,10,9,12,5,190
48.94011573666947,10,9,12,6,194
47.00769704721872,10,9,12,7,198
42.94268973961853,10,9,12,8,202
47.721909753839036,10,9,12,10,206
57.03657135422889,10,9,12,11,210
105.23173401311027,10,9,12,12,214
61.19033847353779,10,9,12,13,218
57.507948124151326,10,9,12,14,222
56.130437175729156,10,9,12,15,226
55.00475866111619,10,9,12,16,230
56.05847814469515,10,9,13,1,238
55.0934696806231,10,9,13,2,242
54.422153696477736,10,9,13,3,246
52.66928661140754,10,9,13,4,250
51.57068263934427,10,9,13,5,254
50.126668435610746,10,9,13,6,2
47.84501211059646,10,9,13,7,6
43.43974154372841,10,9,13,8,10
46.7345362924984,10,9,13,10,14
53.74357017078183,10,9,13,11,18
61.12361917622144,10,9,13,12,22
108.89215546403423,10,9,13,13,26
63.95817708670911,10,9,13,14,30
60.1009960754617,10,9,13,15,34
58.128116210274385,10,9,13,16,38
58.69407420253058,10,9,14,1,46
57.27947383560251,10,9,14,2,50
56.16608063576352,10,9,14,3,54
54.109126613966666,10,9,14,4,58
52.80074650157871,10,9,14,5,62
51.101234694830154,10,9,14,6,66
48.55734756912324,10,9,14,7,70
43.80390022429886,10,9,14,8,74
46.06948622383312,10,9,14,10,78
52.36099520605127,10,9,14,11,82
57.24971340411857,10,9,14,12,86
63.62287611068347,10,9,14,13,90
110.3642433767142,10,9,14,14,94
66.11852531489019,10,9,14,15,98
61.6206916880373,10,9,14,16,102
61.85581194210395,10,9,15,1,110
59.56638636609086,10,9,15,2,114
57.923739853544454,10,9,15,3,118
55.51134468546067,10,9,15,4,122
53.8944138346346,10,9,15,5,126
51.89309377827587,10,9,15,6,130
49.09682962942806,10,9,15,7,134
44.11432073784678,10,9,15,8,138
45.730922748754956,10,9,15,10,142
51.49555084201805,10,9,15,11,146
55.51134468546067,10,9,15,12,150
59.48756348166725,10,9,15,13,154
65.84913865943152,10,9,15,14,158
111.91321377173057,10,9,15,15,162
67.13003291383782,10,9,15,16,166
67.17667934235507,10,9,16,1,174
62.403918004799145,10,9,16,2,178
59.90227042895573,10,9,16,3,182
56.95696776967024,10,9,16,4,186
54.9962786351583,10,9,16,5,190
52.675063316838525,10,9,16,6,194
49.6169158820646,10,9,16,7,198
44.36681599853534,10,9,16,8,202
45.376858655444394,10,9,16,10,206
50.849411148895854,10,9,16,11,210
54.388172136058145,10,9,16,12,214
57.4379018833884,10,9,16,13,218
61.21129236715361,10,9,16,14,222
67.09451346734828,10,9,16,15,226
112.37011287826728,10,9,16,16,230
45.95629483780124,10,10,11,1,238
46.32587924197878,10,10,11,2,242
46.00923967639874,10,10,11,3,246
45.1628065121694,10,10,11,4,250
44.898310410190426,10,10,11,5,254
44.5147498144738,10,10,11,6,2
43.985757134685265,10,10,11,7,6
43.69509134767806,10,10,11,8,10
40.78343676452587,10,10,11,9,14
92.49607569630086,10,10,11,11,18
50.81009330225018,10,10,11,12,22
48.558430834109544,10,10,11,13,26
47.77903102759917,10,10,11,14,30
47.187015953329066,10,10,11,15,34
46.6439397479087,10,10,11,16,38
51.75680027968143,10,10,12,1,46
51.862078900597886,10,10,12,2,50
51.319445096726774,10,10,12,3,54
50.14078979114776,10,10,12,4,58
49.61132949051223,10,10,12,5,62
49.202420439720576,10,10,12,6,66
48.03687371793664,10,10,12,7,70
47.25642347862772,10,10,12,8,74
43.416901309083144,10,10,12,9,78
50.96298154382829,10,10,12,11,82
101.28895210503343,10,10,12,12,86
58.600837200981836,10,10,12,13,90
55.290936867562635,10,10,12,14,94
53.94057056602543,10,10,12,15,98
52.881629071376004,10,10,12,16,102
55.26945886286007,10,10,13,1,110
54.9770231176098,10,10,13,2,114
54.14259386854912,10,10,13,3,118
52.699444709616316,10,10,13,4,122
51.997439524543495,10,10,13,5,126
51.36133999670403,10,10,13,6,130
49.81184345923389,10,10,13,7,134
48.59288694119319,10,10,13,8,138
44.31501073823447,10,10,13,9,142
48.579691517503285,10,10,13,11,146
58.58041591637311,10,10,13,12,150
106.7439991261293,10,10,13,13,154
62.51363874830573,10,10,13,14,158
58.76668687460899,10,10,13,15,162
56.92449703602375,10,10,13,16,166
58.47913069319801,10,10,14,1,174
57.656460346845854,10,10,14,2,178
56.47619490474807,10,10,14,3,182
54.676118600688646,10,10,14,4,186
53.7617556615432,10,10,14,5,190
52.81970767800413,10,10,14,6,194
51.00484307442186,10,10,14,7,198
49.52133485605309,10,10,14,8,202
44.84396171813878,10,10,14,9,206
47.71872185903271,10,10,14,11,210
55.192212915123356,10,10,14,12,214
62.49216145228743,10,10,14,13,218
109.17648747152391,10,10,14,14,222
65.28931389968905,10,10,14,15,226
60.956323010290866,10,10,14,16,230
61.976629382343226,10,10,15,1,238
60.278732806867424,10,10,15,2,242
58.621991267258934,10,10,15,3,246
56.42687768221327,10,10,15,4,250
55.2238844444606,10,10,15,5,254
54.05020670015907,10,10,15,6,2
51.97333217244538,10,10,15,7,6
50.18354913923819,10,10,15,8,10
45.214128277195016,10,10,15,9,14
47.21812892022054,10,10,15,11,18
53.814788269278026,10,10,15,12,22
58.71742341020982,10,10,15,13,26
65.30620689011106,10,10,15,14,30
111.47675963938947,10,10,15,15,34
66.92332421708667,10,10,15,16,38
67.62000800984873,10,10,16,1,46
63.44222959311392,10,10,16,2,50
60.91429740437855,10,10,16,3,54
58.181262988556405,10,10,16,4,58
56.660364836236845,10,10,16,5,62
55.21461064624931,10,10,16,6,66
52.812590324061205,10,10,16,7,70
50.75757341951472,10,10,16,8,74
45.565404138165874,10,10,16,9,78
46.87660016856416,10,10,16,11,82
52.8915464157296,10,10,16,12,86
57.00417867188642,10,10,16,13,90
61.06977512735877,10,10,16,14,94
67.00743094310343,10,10,16,15,98
112.45054573847058,10,10,16,16,102
47.92055313152145,10,11,12,1,110
48.23821296290274,10,11,12,2,114
47.70914499805666,10,11,12,3,118
47.00487747379594,10,11,12,4,122
46.79630661808331,10,11,12,5,126
47.00513797202614,10,11,12,6,130
46.09232995355433,10,11,12,7,134
46.22198318625363,10,11,12,8,138
44.65078412147293,10,11,12,9,142
42.64056289883969,10,11,12,10,146
93.04427242192457,10,11,12,12,150
52.75815407423342,10,11,12,13,154
50.24530230300462,10,11,12,14,158
49.266544344329915,10,11,12,15,162
48.221660640759126,10,11,12,16,166
53.77020482694127,10,11,13,1,174
53.74326734803285,10,11,13,2,178
52.98514524645035,10,11,13,3,182
51.98250692004318,10,11,13,4,186
51.54553285222022,10,11,13,5,190
51.46165240471925,10,11,13,6,194
50.270243534785585,10,11,13,7,198
49.97975983089306,10,11,13,8,202
47.96728951864268,10,11,13,9,206
45.055264766211955,10,11,13,10,210
52.72375957137139,10,11,13,12,214
103.20418896332824,10,11,13,13,218
59.886441525196986,10,11,13,14,222
56.56013066193705,10,11,13,15,226
54.8425287312731,10,11,13,16,230
57.82025888768145,10,11,14,1,238
57.25103728312075,10,11,14,2,242
56.24324700017533,10,11,14,3,246
54.83957364806578,10,11,14,4,250
54.13747442585986,10,11,14,5,254
53.842034150012886,10,11,14,6,2
52.30920840104489,10,11,14,7,6
51.74924358772509,10,11,14,8,10
49.32779196952092,10,11,14,9,14
45.937915911031105,10,11,14,10,18
50.21369240926004,10,11,14,12,22
59.85611799590025,10,11,14,13,26
107.46612557904366,10,11,14,14,30
63.9670034793239,10,11,14,15,34
59.8339538093496,10,11,14,16,38
61.804111435342975,10,11,15,1,46
60.383676712807805,10,11,15,2,50
58.83342423314962,10,11,15,3,54
57.13763085899824,10,11,15,4,58
56.07759664512366,10,11,15,5,62
55.56967752061027,10,11,15,6,66
53.771502064077275,10,11,15,7,70
52.90886083323133,10,11,15,8,74
50.233249716512056,10,11,15,9,78
46.43050359501629,10,11,15,10,82
49.35866651889933,10,11,15,12,86
56.580374265315264,10,11,15,13,90
64.02866199450206,10,11,15,14,94
110.5939120639356,10,11,15,15,98
66.37488529136209,10,11,15,16,102
67.7908907493014,10,11,16,1,110
63.879823677964545,10,11,16,2,114
61.5204068842482,10,11,16,3,118
59.22741686529527,10,11,16,4,122
57.87531461697361,10,11,16,5,126
57.016610840066384,10,11,16,6,130
54.95904666450394,10,11,16,7,134
53.8345588342355,10,11,16,8,138
50.890098818602816,10,11,16,9,142
46.78483916874352,10,11,16,10,146
48.84828129906937,10,11,16,12,150
55.235856723301744,10,11,16,13,154
60.167319545010955,10,11,16,14,158
66.53439259161833,10,11,16,15,162
112.31724082650526,10,11,16,16,166
46.71314488932067,10,12,13,1,174
46.898841126332286,10,12,13,2,178
46.00923967639874,10,12,13,3,182
45.761020144697774,10,12,13,4,186
45.53614815277063,10,12,13,5,190
45.89088540084347,10,12,13,6,194
44.96748312974922,10,12,13,7,198
45.22965557651999,10,12,13,8,202
44.05220876181757,10,12,13,9,206
43.64347381826861,10,12,13,10,210
41.39825830136991,10,12,13,11,214
91.86121648874781,10,12,13,13,218
51.02138050352338,10,12,13,14,222
48.10177498450905,10,12,13,15,226
47.150401371421,10,12,13,16,230
53.256467059147255,10,12,14,1,238
52.96753717053131,10,12,14,2,242
51.68106058195957,10,12,14,3,246
51.12498564708423,10,12,14,4,250
50.63430500258546,10,12,14,5,254
50.73116016479982,10,12,14,6,2
49.536432671719346,10,12,14,7,6
49.51939282788529,10,12,14,8,10
47.9734882345637,10,12,14,9,14
47.06049747348339,10,12,14,10,18
43.91321980132709,10,12,14,11,22
51.07113380309922,10,12,14,13,26
101.08319893454356,10,12,14,14,30
58.32712945779427,10,12,14,15,34
54.60337133238886,10,12,14,16,38
58.081421452307474,10,12,15,1,46
56.95377985006693,10,12,15,2,50
55.38841840371347,10,12,15,3,54
54.19547305775642,10,12,15,4,58
53.497893690444045,10,12,15,5,62
53.298004344259674,10,12,15,6,66
51.83780136099266,10,12,15,7,70
51.54729140309798,10,12,15,8,74
49.692165294589785,10,12,15,9,78
48.437291141259365,10,12,15,10,82
44.78037453625308,10,12,15,11,86
48.69904199547753,10,12,15,13,90
58.60959123346209,10,12,15,14,94
106.01627850462896,10,12,15,15,98
61.82963522198142,10,12,15,16,102
64.63982474340546,10,12,16,1,110
60.98148285895141,10,12,16,2,114
58.640457104708666,10,12,16,3,118
56.87830645118505,10,12,16,4,122
55.73518246072634,10,12,16,5,126
55.2699823278005,10,12,16,6,130
53.51267672192224,10,12,16,7,134
52.99226437799184,10,12,16,8,138
50.84853122293054,10,12,16,9,142
49.32501395456218,10,12,16,10,146
45.30916077726666,10,12,16,11,150
47.87567871914648,10,12,16,13,154
55.261335185453646,10,12,16,14,158
62.320006904247485,10,12,16,15,162
108.75425330561454,10,12,16,16,166
47.94741530993428,10,13,14,1,174
48.03567393208732,10,13,14,2,178
47.322358311783624,10,13,14,3,182
46.742666199390754,10,13,14,4,186
46.462835656393835,10,13,14,5,190
46.78003149810673,10,13,14,6,194
45.94691937597306,10,13,14,7,198
46.303914011249056,10,13,14,8,202
45.2467158475965,10,13,14,9,206
45.35172627541534,10,13,14,10,210
44.561050465698855,10,13,14,11,214
42.01895531941434,10,13,14,12,218
92.03912662683953,10,13,14,14,222
51.727007139912104,10,13,14,15,226
48.764563013358924,10,13,14,16,230
55.193331217779615,10,13,15,1,238
54.428707072413616,10,13,15,2,242
53.31670370766881,10,13,15,3,246
52.23150692652764,10,13,15,4,250
51.753813913715064,10,13,15,5,254
51.72657647098745,10,13,15,6,2
50.62812770604073,10,13,15,7,6
50.717049886390676,10,13,15,8,10
49.35703646291642,10,13,15,9,14
49.10504885236495,10,13,15,10,18
47.79432956857865,10,13,15,11,22
44.42119586166385,10,13,15,12,26
51.96604445006415,10,13,15,14,30
101.75317531757175,10,13,15,15,34
58.61424857724879,10,13,15,16,38
62.55992019134089,10,13,16,1,46
59.29114499021745,10,13,16,2,50
57.39589136701079,10,13,16,3,54
55.701860890024754,10,13,16,4,58
54.87666006914387,10,13,16,5,62
54.62655273340165,10,13,16,6,66
53.18326183086728,10,13,16,7,70
53.0112936513133,10,13,16,8,74
51.42241767434423,10,13,16,9,78
50.8222132994351,10,13,16,10,82
49.139925114347896,10,13,16,11,86
45.27526663903933,10,13,16,12,90
49.46025052116818,10,13,16,14,94
58.96962973521671,10,13,16,15,98
106.20913209098681,10,13,16,16,102
47.97058178475087,10,14,15,1,110
47.71928434174209,10,14,15,2,114
47.058844205288004,10,14,15,3,118
46.184535350053565,10,14,15,4,122
45.96045162940985,10,14,15,5,126
46.09346846681764,10,14,15,6,130
45.40443122125982,10,14,15,7,134
45.77694148157145,10,14,15,8,138
44.78355059453299,10,14,15,9,142
45.07904113154281,10,14,15,10,146
44.62621391401923,10,14,15,11,150
43.68403109316784,10,14,15,12,154
41.34990643017596,10,14,15,13,158
91.20002143920014,10,14,15,15,162
50.585867938946016,10,14,15,16,166
57.82748501831759,10,14,16,1,174
55.08667890194823,10,14,16,2,178
53.603053790284065,10,14,16,3,182
52.1202554228064,10,14,16,4,186
51.53866673944294,10,14,16,5,190
51.420667355406486,10,14,16,6,194
50.41250590397524,10,14,16,7,198
50.53328068615275,10,14,16,8,202
49.31459034655576,10,14,16,9,206
49.32836032215975,10,14,16,10,210
48.45474706976806,10,14,16,11,214
47.0119800733939,10,14,16,12,218
43.83869104573322,10,14,16,13,222
50.92988824266098,10,14,16,15,226
100.62169141850488,10,14,16,16,230
50.65591073840148,10,15,16,1,238
48.723386983371014,10,15,16,2,242
47.943954965655934,10,15,16,3,246
46.73964859105204,10,15,16,4,250
46.39572919537698,10,15,16,5,254
46.09232995355432,10,15,16,6,2
45.84019069308348,10,15,16,7,6
46.01302021879985,10,15,16,8,10
45.74769702650087,10,15,16,9,14
45.62876396739304,10,15,16,10,18
45.140174224252924,10,15,16,11,22
44.137699941692645,10,15,16,12,26
43.630825368565844,10,15,16,13,30
41.29109374597627,10,15,16,14,34
91.12488785146765,10,15,16,16,38
92.47425784924616,10,1,2,2,42
51.098411484272425,10,1,2,3,46
48.51924148722949,10,1,2,4,50
47.68596118606821,10,1,2,5,54
47.18371674672692,10,1,2,6,58
46.783874511998896,10,1,2,7,62
46.479745354843104,10,1,2,8,66
46.219013330538516,10,1,2,9,70
45.991092952736906,10,1,2,10,74
45.70045665254608,10,1,2,11,78
45.39847388054845,10,1,2,12,82
45.054775570008346,10,1,2,13,86
44.56526260249071,10,1,2,14,90
43.67688432164111,10,1,2,15,94
41.140517891098895,10,1,2,16,98
51.07953545843031,10,1,3,2,106
102.47019806258828,10,1,3,3,110
58.16679249949909,10,1,3,4,114
55.05509146471986,10,1,3,5,118
53.5853126476082,10,1,3,6,122
52.63201872469772,10,1,3,7,126
51.982372019677484,10,1,3,8,130
51.41064342722609,10,1,3,9,134
50.89768697942937,10,1,3,10,138
50.364804367406045,10,1,3,11,142
49.79787651074165,10,1,3,12,146
49.15011668799784,10,1,3,13,150
48.27408953207783,10,1,3,14,154
46.91264809163094,10,1,3,15,158
43.509913624064325,10,1,3,16,162
48.567525942803314,10,1,4,2,170
58.22661632487115,10,1,4,3,174
109.01956075528733,10,1,4,4,178
62.997646386907235,10,1,4,5,182
58.68735638422046,10,1,4,6,186
56.77000370683993,10,1,4,7,190
55.49909829852057,10,1,4,8,194
54.62113438772528,10,1,4,9,198
53.763521735991255,10,1,4,10,202
52.92793186423284,10,1,4,11,206
52.133020500148845,10,1,4,12,210
51.272898633849145,10,1,4,13,214
50.03992237266816,10,1,4,14,218
48.29131267013506,10,1,4,15,222
44.39766323442326,10,1,4,16,226
47.77003225559418,10,1,5,2,234
55.09418666702754,10,1,5,3,238
62.98727825015059,10,1,5,4,242
107.96508176303385,10,1,5,5,246
64.69510962557213,10,1,5,6,250
60.50864395516116,10,1,5,7,254
58.420343686060825,10,1,5,8,2
57.069033481907255,10,1,5,9,6
55.813119626631355,10,1,5,10,10
54.75071808761754,10,1,5,11,14
53.71305443808565,10,1,5,12,18
52.577328704149565,10,1,5,13,22
51.134399912193295,10,1,5,14,26
49.11696030665137,10,1,5,15,30
44.88108839270759,10,1,5,16,34
47.2182426341851,10,1,6,2,42
53.59188370562078,10,1,6,3,46
58.604258236697774,10,1,6,4,50
64.63209831227633,10,1,6,5,54
112.60424601443101,10,1,6,6,58
66.51420509968347,10,1,6,7,62
62.019745875678744,10,1,6,8,66
59.753342493483494,10,1,6,9,70
58.00395785689078,10,1,6,10,74
56.61706508632633,10,1,6,11,78
55.22547134591832,10,1,6,12,82
53.81971164487881,10,1,6,13,86
52.06703914610032,10,1,6,14,90
49.830774748482455,10,1,6,15,94
45.246062636576816,10,1,6,16,98
46.81384103329294,10,1,7,2,106
52.63624505414399,10,1,7,3,110
56.742734604318684,10,1,7,4,114
60.45328136786698,10,1,7,5,118
66.53024709788819,10,1,7,6,122
114.46620818726427,10,1,7,7,126
67.75867488756099,10,1,7,8,130
63.03812433115642,10,1,7,9,134
60.33492273673643,10,1,7,10,138
58.41285180281884,10,1,7,11,142
