BIOZ1_TOMO,EXC_FREQ_KHZ,GND_OUTPUT,EXC_OUTPUT,SENSE_OUTPUT,PACKET_NUMBER
2.03072432191543,10,4,6,2,245
2.03072432191543,10,4,6,2,246
2.03072432191543,10,4,6,2,247
2.03072432191543,10,4,6,2,248
2.03072432191543,10,4,6,2,249
2.03072432191543,10,4,6,2,250
2.03072432191543,10,4,6,2,251
2.03072432191543,10,4,6,2,252
2.0378812219230444,10,4,6,2,253
2.0378812219230444,10,4,6,2,254
2.0378812219230444,10,4,6,2,255
2.0378812219230444,10,4,6,2,0
2.0378812219230444,10,4,6,2,1
2.0378812219230444,10,4,6,2,2
2.0378812219230444,10,4,6,2,3
2.0378812219230444,10,4,6,2,4
2.045049694698035,10,4,6,2,5
2.045049694698035,10,4,6,2,6
2.045049694698035,10,4,6,2,7
2.045049694698035,10,4,6,2,8
2.045049694698035,10,4,6,2,9
2.045049694698035,10,4,6,2,10
2.045049694698035,10,4,6,2,11
2.045049694698035,10,4,6,2,12
2.0522290342412677,10,4,6,2,13
2.0522290342412677,10,4,6,2,14
2.0522290342412677,10,4,6,2,15
2.0522290342412677,10,4,6,2,16
2.0522290342412677,10,4,6,2,17
2.0522290342412677,10,4,6,2,18
2.0522290342412677,10,4,6,2,19
2.0522290342412677,10,4,6,2,20
2.0594185138745074,10,4,6,2,21
2.0594185138745074,10,4,6,2,22
2.0594185138745074,10,4,6,2,23
2.0594185138745074,10,4,6,2,24
2.0594185138745074,10,4,6,2,25
2.0594185138745074,10,4,6,2,26
2.0594185138745074,10,4,6,2,27
2.0594185138745074,10,4,6,2,28
2.066617385952448,10,4,6,2,29
2.066617385952448,10,4,6,2,30
2.066617385952448,10,4,6,2,31
2.066617385952448,10,4,6,2,32
2.066617385952448,10,4,6,2,33
2.066617385952448,10,4,6,2,34
2.066617385952448,10,4,6,2,35
2.066617385952448,10,4,6,2,36
2.073824881580443,10,4,6,2,37
2.073824881580443,10,4,6,2,38
2.073824881580443,10,4,6,2,39
2.073824881580443,10,4,6,2,40
2.073824881580443,10,4,6,2,41
2.073824881580443,10,4,6,2,42
2.073824881580443,10,4,6,2,43
2.073824881580443,10,4,6,2,44
2.081040210338534,10,4,6,2,45
2.081040210338534,10,4,6,2,46
2.081040210338534,10,4,6,2,47
2.081040210338534,10,4,6,2,48
2.081040210338534,10,4,6,2,49
2.081040210338534,10,4,6,2,50
2.081040210338534,10,4,6,2,51
2.081040210338534,10,4,6,2,52
2.0882625600123967,10,4,6,2,53
2.0882625600123967,10,4,6,2,54
2.0882625600123967,10,4,6,2,55
2.0882625600123967,10,4,6,2,56
2.0882625600123967,10,4,6,2,57
2.0882625600123967,10,4,6,2,58
2.0882625600123967,10,4,6,2,59
2.0882625600123967,10,4,6,2,60
2.0954910963318483,10,4,6,2,61
2.0954910963318483,10,4,6,2,62
2.0954910963318483,10,4,6,2,63
2.0954910963318483,10,4,6,2,64
2.0954910963318483,10,4,6,2,65
2.0954910963318483,10,4,6,2,66
2.0954910963318483,10,4,6,2,67
2.0954910963318483,10,4,6,2,68
2.102724962717572,10,4,6,2,69
2.102724962717572,10,4,6,2,70
2.102724962717572,10,4,6,2,71
2.102724962717572,10,4,6,2,72
2.102724962717572,10,4,6,2,73
2.102724962717572,10,4,6,3,74
2.102724962717572,10,4,6,3,75
2.102724962717572,10,4,6,3,76
2.1099632800367516,10,4,6,3,77
2.1099632800367516,10,4,6,3,78
2.1099632800367516,10,4,6,3,79
2.1099632800367516,10,4,6,3,80
2.1099632800367516,10,4,6,3,81
2.1099632800367516,10,4,6,3,82
2.1099632800367516,10,4,6,3,83
2.1099632800367516,10,4,6,3,84
2.1172051463683155,10,4,6,3,85
2.1172051463683155,10,4,6,3,86
2.1172051463683155,10,4,6,3,87
2.1172051463683155,10,4,6,3,88
2.1172051463683155,10,4,6,3,89
2.1172051463683155,10,4,6,3,90
2.1172051463683155,10,4,6,3,91
2.1172051463683155,10,4,6,3,92
2.1244496367785275,10,4,6,3,93
2.1244496367785275,10,4,6,3,94
2.1244496367785275,10,4,6,3,95
2.1244496367785275,10,4,6,3,96
2.1244496367785275,10,4,6,3,97
2.1244496367785275,10,4,6,3,98
2.1244496367785275,10,4,6,3,99
2.1244496367785275,10,4,6,3,100
2.1316958031076605,10,4,6,3,101
2.1316958031076605,10,4,6,3,102
2.1316958031076605,10,4,6,3,103
2.1316958031076605,10,4,6,3,104
2.1316958031076605,10,4,6,3,105
2.1316958031076605,10,4,6,3,106
2.1316958031076605,10,4,6,3,107
2.1316958031076605,10,4,6,3,108
2.1316958031076605,10,4,6,3,109
1.9478103772630315,10,4,6,3,110
1.9478103772630315,10,4,6,3,111
1.9478103772630315,10,4,6,3,112
1.9478103772630315,10,4,6,3,113
1.9478103772630315,10,4,6,3,114
1.9478103772630315,10,4,6,3,115
1.9478103772630315,10,4,6,3,116
1.9544094149493354,10,4,6,3,117
1.9544094149493354,10,4,6,3,118
1.9544094149493354,10,4,6,3,119
1.9544094149493354,10,4,6,3,120
1.9544094149493354,10,4,6,3,121
1.9544094149493354,10,4,6,3,122
1.9544094149493354,10,4,6,3,123
1.9544094149493354,10,4,6,3,124
1.9610072598163752,10,4,6,3,125
1.9610072598163752,10,4,6,3,126
1.9610072598163752,10,4,6,3,127
1.9610072598163752,10,4,6,3,128
1.9610072598163752,10,4,6,3,129
1.9610072598163752,10,4,6,3,130
1.9610072598163752,10,4,6,3,131
1.9610072598163752,10,4,6,3,132
1.967602962112477,10,4,6,3,133
1.967602962112477,10,4,6,3,134
1.967602962112477,10,4,6,3,135
1.967602962112477,10,4,6,3,136
1.967602962112477,10,4,6,3,137
1.967602962112477,10,4,6,3,138
1.967602962112477,10,4,6,3,139
1.967602962112477,10,4,6,3,140
1.9741955501407877,10,4,6,3,141
1.9741955501407877,10,4,6,3,142
1.9741955501407877,10,4,6,3,143
1.9741955501407877,10,4,6,3,144
1.9741955501407877,10,4,6,3,145
1.9741955501407877,10,4,6,3,146
1.9741955501407877,10,4,6,3,147
1.9741955501407877,10,4,6,3,148
1.980784030140968,10,4,6,3,149
1.980784030140968,10,4,6,3,150
1.980784030140968,10,4,6,3,151
1.980784030140968,10,4,6,3,152
1.980784030140968,10,4,6,3,153
1.980784030140968,10,4,6,3,154
1.980784030140968,10,4,6,3,155
1.980784030140968,10,4,6,3,156
1.987367386186259,10,4,6,3,157
1.987367386186259,10,4,6,3,158
1.987367386186259,10,4,6,3,159
1.987367386186259,10,4,6,3,160
1.987367386186259,10,4,6,3,161
1.987367386186259,10,4,6,3,162
1.987367386186259,10,4,6,3,163
1.987367386186259,10,4,6,3,164
1.9939445800967515,10,4,6,3,165
1.9939445800967515,10,4,6,3,166
1.9939445800967515,10,4,6,3,167
1.9939445800967515,10,4,6,3,168
1.9939445800967515,10,4,6,3,169
1.9939445800967515,10,4,6,3,170
1.9939445800967515,10,4,6,3,171
1.9939445800967515,10,4,6,3,172
2.0005145513696685,10,4,6,3,173
2.0005145513696685,10,4,6,5,174
2.0005145513696685,10,4,6,5,175
2.0005145513696685,10,4,6,5,176
2.0005145513696685,10,4,6,5,177
2.0005145513696685,10,4,6,5,178
2.0005145513696685,10,4,6,5,179
2.0005145513696685,10,4,6,5,180
2.007076217127524,10,4,6,5,181
2.007076217127524,10,4,6,5,182
2.007076217127524,10,4,6,5,183
2.007076217127524,10,4,6,5,184
2.007076217127524,10,4,6,5,185
2.007076217127524,10,4,6,5,186
2.007076217127524,10,4,6,5,187
2.007076217127524,10,4,6,5,188
2.0136284720849957,10,4,6,5,189
2.0136284720849957,10,4,6,5,190
2.0136284720849957,10,4,6,5,191
2.0136284720849957,10,4,6,5,192
2.0136284720849957,10,4,6,5,193
2.0136284720849957,10,4,6,5,194
2.0136284720849957,10,4,6,5,195
2.0136284720849957,10,4,6,5,196
2.020170188535382,10,4,6,5,197
2.020170188535382,10,4,6,5,198
2.020170188535382,10,4,6,5,199
2.020170188535382,10,4,6,5,200
2.020170188535382,10,4,6,5,201
2.020170188535382,10,4,6,5,202
2.020170188535382,10,4,6,5,203
2.020170188535382,10,4,6,5,204
2.0267002163575074,10,4,6,5,205
2.0267002163575074,10,4,6,5,206
2.0267002163575074,10,4,6,5,207
2.0267002163575074,10,4,6,5,208
2.0267002163575074,10,4,6,5,209
2.0267002163575074,10,4,6,5,210
2.0267002163575074,10,4,6,5,211
2.0267002163575074,10,4,6,5,212
2.033217383043958,10,4,6,5,213
2.033217383043958,10,4,6,5,214
2.033217383043958,10,4,6,5,215
2.033217383043958,10,4,6,5,216
2.033217383043958,10,4,6,5,217
2.033217383043958,10,4,6,5,218
2.033217383043958,10,4,6,5,219
2.033217383043958,10,4,6,5,220
2.0397204937515196,10,4,6,5,221
2.0397204937515196,10,4,6,5,222
2.0397204937515196,10,4,6,5,223
2.0397204937515196,10,4,6,5,224
2.0397204937515196,10,4,6,5,225
2.0397204937515196,10,4,6,5,226
2.0397204937515196,10,4,6,5,227
2.0397204937515196,10,4,6,5,228
2.046208331374706,10,4,6,5,229
2.046208331374706,10,4,6,5,230
2.046208331374706,10,4,6,5,231
2.046208331374706,10,4,6,5,232
2.046208331374706,10,4,6,5,233
2.046208331374706,10,4,6,5,234
2.046208331374706,10,4,6,5,235
2.046208331374706,10,4,6,5,236
2.0526796566432575,10,4,6,5,237
2.0526796566432575,10,4,6,5,238
2.0526796566432575,10,4,6,5,239
2.0526796566432575,10,4,6,5,240
2.0526796566432575,10,4,6,5,241
2.0526796566432575,10,4,6,5,242
2.0526796566432575,10,4,6,5,243
2.0526796566432575,10,4,6,5,244
2.059133208244494,10,4,6,5,245
2.059133208244494,10,4,6,5,246
2.059133208244494,10,4,6,5,247
2.059133208244494,10,4,6,5,248
2.059133208244494,10,4,6,5,249
2.059133208244494,10,4,6,5,250
2.059133208244494,10,4,6,5,251
2.059133208244494,10,4,6,5,252
2.0655677029713875,10,4,6,5,253
2.0655677029713875,10,4,6,5,254
2.0655677029713875,10,4,6,5,255
2.0655677029713875,10,4,6,5,0
2.0655677029713875,10,4,6,5,1
2.0655677029713875,10,4,6,5,2
2.0655677029713875,10,4,6,5,3
2.0655677029713875,10,4,6,5,4
2.071981835897237,10,4,6,5,5
2.071981835897237,10,4,6,5,6
2.071981835897237,10,4,6,5,7
2.071981835897237,10,4,6,5,8
2.071981835897237,10,4,6,5,9
2.071981835897237,10,4,6,5,10
2.071981835897237,10,4,6,5,11
2.071981835897237,10,4,6,5,12
2.0783742805778003,10,4,6,5,13
2.0783742805778003,10,4,6,5,14
2.0783742805778003,10,4,6,5,15
2.0783742805778003,10,4,6,5,16
2.0783742805778003,10,4,6,5,17
2.0783742805778003,10,4,6,6,18
2.0783742805778003,10,4,6,6,19
2.0783742805778003,10,4,6,6,20
2.08474368928173,10,4,6,6,21
2.08474368928173,10,4,6,6,22
2.08474368928173,10,4,6,6,23
2.08474368928173,10,4,6,6,24
2.08474368928173,10,4,6,6,25
2.08474368928173,10,4,6,6,26
2.08474368928173,10,4,6,6,27
2.08474368928173,10,4,6,6,28
2.0910886932501476,10,4,6,6,29
2.0910886932501476,10,4,6,6,30
2.0910886932501476,10,4,6,6,31
2.0910886932501476,10,4,6,6,32
2.0910886932501476,10,4,6,6,33
2.0910886932501476,10,4,6,6,34
2.0910886932501476,10,4,6,6,35
2.0910886932501476,10,4,6,6,36
2.0974079029861734,10,4,6,6,37
2.0974079029861734,10,4,6,6,38
2.0974079029861734,10,4,6,6,39
2.0974079029861734,10,4,6,6,40
2.0974079029861734,10,4,6,6,41
2.0974079029861734,10,4,6,6,42
2.0974079029861734,10,4,6,6,43
2.0974079029861734,10,4,6,6,44
2.103699908575212,10,4,6,6,45
2.103699908575212,10,4,6,6,46
2.103699908575212,10,4,6,6,47
2.103699908575212,10,4,6,6,48
2.103699908575212,10,4,6,6,49
2.103699908575212,10,4,6,6,50
2.103699908575212,10,4,6,6,51
1.9486526736817567,10,4,6,6,52
1.9486526736817567,10,4,6,6,53
1.9486526736817567,10,4,6,6,54
1.9486526736817567,10,4,6,6,55
1.9486526736817567,10,4,6,6,56
1.9486526736817567,10,4,6,6,57
1.9486526736817567,10,4,6,6,58
1.9486526736817567,10,4,6,6,59
1.9486526736817567,10,4,6,6,60
1.9544094149493354,10,4,6,6,61
1.9544094149493354,10,4,6,6,62
1.9544094149493354,10,4,6,6,63
1.9544094149493354,10,4,6,6,64
1.9544094149493354,10,4,6,6,65
1.9544094149493354,10,4,6,6,66
1.9544094149493354,10,4,6,6,67
1.9544094149493354,10,4,6,6,68
1.96013701576366,10,4,6,6,69
1.96013701576366,10,4,6,6,70
1.96013701576366,10,4,6,6,71
1.96013701576366,10,4,6,6,72
1.96013701576366,10,4,6,6,73
1.96013701576366,10,4,6,6,74
1.96013701576366,10,4,6,6,75
1.96013701576366,10,4,6,6,76
1.9658341021240897,10,4,6,6,77
1.9658341021240897,10,4,6,6,78
1.9658341021240897,10,4,6,6,79
1.9658341021240897,10,4,6,6,80
1.9658341021240897,10,4,6,6,81
1.9658341021240897,10,4,6,6,82
1.9658341021240897,10,4,6,6,83
1.9658341021240897,10,4,6,6,84
1.9714992831022204,10,4,6,6,85
1.9714992831022204,10,4,6,6,86
1.9714992831022204,10,4,6,6,87
1.9714992831022204,10,4,6,6,88
1.9714992831022204,10,4,6,6,89
1.9714992831022204,10,4,6,6,90
1.9714992831022204,10,4,6,6,91
1.9714992831022204,10,4,6,6,92
1.9771311513220575,10,4,6,6,93
1.9771311513220575,10,4,6,6,94
1.9771311513220575,10,4,6,6,95
1.9771311513220575,10,4,6,6,96
1.9771311513220575,10,4,6,6,97
1.9771311513220575,10,4,6,6,98
1.9771311513220575,10,4,6,6,99
1.9771311513220575,10,4,6,6,100
1.9827282834729472,10,4,6,6,101
1.9827282834729472,10,4,6,6,102
1.9827282834729472,10,4,6,6,103
1.9827282834729472,10,4,6,6,104
1.9827282834729472,10,4,6,6,105
1.9827282834729472,10,4,6,6,106
1.9827282834729472,10,4,6,6,107
1.9827282834729472,10,4,6,6,108
1.9882892408557198,10,4,6,6,109
1.9882892408557198,10,4,6,6,110
1.9882892408557198,10,4,6,6,111
1.9882892408557198,10,4,6,6,112
1.9882892408557198,10,4,6,6,113
1.9882892408557198,10,4,6,6,114
1.9882892408557198,10,4,6,6,115
1.9882892408557198,10,4,6,6,116
1.9938125699624842,10,4,6,6,117
1.9938125699624842,10,4,6,7,118
1.9938125699624842,10,4,6,7,119
1.9938125699624842,10,4,6,7,120
1.9938125699624842,10,4,6,7,121
1.9938125699624842,10,4,6,7,122
1.9938125699624842,10,4,6,7,123
1.9938125699624842,10,4,6,7,124
1.9992968030904241,10,4,6,7,125
1.9992968030904241,10,4,6,7,126
1.9992968030904241,10,4,6,7,127
1.9992968030904241,10,4,6,7,128
1.9992968030904241,10,4,6,7,129
1.9992968030904241,10,4,6,7,130
1.9992968030904241,10,4,6,7,131
1.9992968030904241,10,4,6,7,132
2.004740458989921,10,4,6,7,133
2.004740458989921,10,4,6,7,134
2.004740458989921,10,4,6,7,135
2.004740458989921,10,4,6,7,136
2.004740458989921,10,4,6,7,137
2.004740458989921,10,4,6,7,138
2.004740458989921,10,4,6,7,139
2.004740458989921,10,4,6,7,140
2.0101420435472583,10,4,6,7,141
2.0101420435472583,10,4,6,7,142
2.0101420435472583,10,4,6,7,143
2.0101420435472583,10,4,6,7,144
2.0101420435472583,10,4,6,7,145
2.0101420435472583,10,4,6,7,146
2.0101420435472583,10,4,6,7,147
2.0101420435472583,10,4,6,7,148
2.015500050502086,10,4,6,7,149
2.015500050502086,10,4,6,7,150
2.015500050502086,10,4,6,7,151
2.015500050502086,10,4,6,7,152
2.015500050502086,10,4,6,7,153
2.015500050502086,10,4,6,7,154
2.015500050502086,10,4,6,7,155
2.015500050502086,10,4,6,7,156
2.020812962199785,10,4,6,7,157
2.020812962199785,10,4,6,7,158
2.020812962199785,10,4,6,7,159
2.020812962199785,10,4,6,7,160
2.020812962199785,10,4,6,7,161
2.020812962199785,10,4,6,7,162
2.020812962199785,10,4,6,7,163
2.020812962199785,10,4,6,7,164
2.026079250378784,10,4,6,7,165
2.026079250378784,10,4,6,7,166
2.026079250378784,10,4,6,7,167
2.026079250378784,10,4,6,7,168
2.026079250378784,10,4,6,7,169
2.026079250378784,10,4,6,7,170
2.026079250378784,10,4,6,7,171
2.026079250378784,10,4,6,7,172
2.0312973769927996,10,4,6,7,173
2.0312973769927996,10,4,6,7,174
2.0312973769927996,10,4,6,7,175
2.0312973769927996,10,4,6,7,176
2.0312973769927996,10,4,6,7,177
2.0312973769927996,10,4,6,7,178
2.0312973769927996,10,4,6,7,179
2.0312973769927996,10,4,6,7,180
2.0364657950679192,10,4,6,7,181
2.0364657950679192,10,4,6,7,182
2.0364657950679192,10,4,6,7,183
2.0364657950679192,10,4,6,7,184
2.0364657950679192,10,4,6,7,185
2.0364657950679192,10,4,6,7,186
2.0364657950679192,10,4,6,7,187
2.0364657950679192,10,4,6,7,188
2.04158294959435,10,4,6,7,189
2.04158294959435,10,4,6,7,190
2.04158294959435,10,4,6,7,191
2.04158294959435,10,4,6,7,192
2.04158294959435,10,4,6,7,193
2.04158294959435,10,4,6,7,194
2.04158294959435,10,4,6,7,195
2.04158294959435,10,4,6,7,196
2.0466472784525664,10,4,6,7,197
2.0466472784525664,10,4,6,7,198
2.0466472784525664,10,4,6,7,199
2.0466472784525664,10,4,6,7,200
2.0466472784525664,10,4,6,7,201
2.0466472784525664,10,4,6,7,202
2.0466472784525664,10,4,6,7,203
2.0466472784525664,10,4,6,7,204
2.0516572133735353,10,4,6,7,205
2.0516572133735353,10,4,6,7,206
2.0516572133735353,10,4,6,7,207
2.0516572133735353,10,4,6,7,208
2.0516572133735353,10,4,6,7,209
2.0516572133735353,10,4,6,7,210
2.0516572133735353,10,4,6,7,211
2.0516572133735353,10,4,6,7,212
2.0566111809325625,10,4,6,7,213
2.0566111809325625,10,4,6,7,214
2.0566111809325625,10,4,6,7,215
2.0566111809325625,10,4,6,7,216
2.0566111809325625,10,4,6,7,217
2.0566111809325625,10,4,6,8,218
2.0566111809325625,10,4,6,8,219
2.0566111809325625,10,4,6,8,220
2.0615076035762576,10,4,6,8,221
2.0615076035762576,10,4,6,8,222
2.0615076035762576,10,4,6,8,223
2.0615076035762576,10,4,6,8,224
2.0615076035762576,10,4,6,8,225
2.0615076035762576,10,4,6,8,226
2.0615076035762576,10,4,6,8,227
2.0615076035762576,10,4,6,8,228
2.066344900681997,10,4,6,8,229
2.066344900681997,10,4,6,8,230
2.066344900681997,10,4,6,8,231
2.066344900681997,10,4,6,8,232
2.066344900681997,10,4,6,8,233
2.066344900681997,10,4,6,8,234
2.066344900681997,10,4,6,8,235
2.066344900681997,10,4,6,8,236
2.0711214896491654,10,4,6,8,237
2.0711214896491654,10,4,6,8,238
2.0711214896491654,10,4,6,8,239
2.0711214896491654,10,4,6,8,240
2.0711214896491654,10,4,6,8,241
2.0711214896491654,10,4,6,8,242
2.0711214896491654,10,4,6,8,243
2.0711214896491654,10,4,6,8,244
2.0758357870213784,10,4,6,8,245
2.0758357870213784,10,4,6,8,246
2.0758357870213784,10,4,6,8,247
2.0758357870213784,10,4,6,8,248
2.0758357870213784,10,4,6,8,249
1.96553449413714,10,4,6,8,250
1.96553449413714,10,4,6,8,251
1.96553449413714,10,4,6,8,252
1.9699378126096094,10,4,6,8,253
1.9699378126096094,10,4,6,8,254
1.9699378126096094,10,4,6,8,255
1.9699378126096094,10,4,6,8,0
1.9699378126096094,10,4,6,8,1
1.9699378126096094,10,4,6,8,2
1.9699378126096094,10,4,6,8,3
1.9699378126096094,10,4,6,8,4
1.9742791527284793,10,4,6,8,5
1.9742791527284793,10,4,6,8,6
1.9742791527284793,10,4,6,8,7
1.9742791527284793,10,4,6,8,8
1.9742791527284793,10,4,6,8,9
1.9742791527284793,10,4,6,8,10
1.9742791527284793,10,4,6,8,11
1.9742791527284793,10,4,6,8,12
1.9785570194001452,10,4,6,8,13
1.9785570194001452,10,4,6,8,14
1.9785570194001452,10,4,6,8,15
1.9785570194001452,10,4,6,8,16
1.9785570194001452,10,4,6,8,17
1.9785570194001452,10,4,6,8,18
1.9785570194001452,10,4,6,8,19
1.9785570194001452,10,4,6,8,20
1.9827699212457388,10,4,6,8,21
1.9827699212457388,10,4,6,8,22
1.9827699212457388,10,4,6,8,23
1.9827699212457388,10,4,6,8,24
1.9827699212457388,10,4,6,8,25
1.9827699212457388,10,4,6,8,26
1.9827699212457388,10,4,6,8,27
1.9827699212457388,10,4,6,8,28
1.9869163717955516,10,4,6,8,29
1.9869163717955516,10,4,6,8,30
1.9869163717955516,10,4,6,8,31
1.9869163717955516,10,4,6,8,32
1.9869163717955516,10,4,6,8,33
1.9869163717955516,10,4,6,8,34
1.9869163717955516,10,4,6,8,35
1.9869163717955516,10,4,6,8,36
1.990994890706186,10,4,6,8,37
1.990994890706186,10,4,6,8,38
1.990994890706186,10,4,6,8,39
1.990994890706186,10,4,6,8,40
1.990994890706186,10,4,6,8,41
1.990994890706186,10,4,6,8,42
1.990994890706186,10,4,6,8,43
1.990994890706186,10,4,6,8,44
1.995004004999002,10,4,6,8,45
1.995004004999002,10,4,6,8,46
1.995004004999002,10,4,6,8,47
1.995004004999002,10,4,6,8,48
1.995004004999002,10,4,6,8,49
1.995004004999002,10,4,6,8,50
1.995004004999002,10,4,6,8,51
1.995004004999002,10,4,6,8,52
1.9989422503183052,10,4,6,8,53
1.9989422503183052,10,4,6,8,54
1.9989422503183052,10,4,6,8,55
1.9989422503183052,10,4,6,8,56
1.9989422503183052,10,4,6,8,57
1.9989422503183052,10,4,6,8,58
1.9989422503183052,10,4,6,8,59
1.9989422503183052,10,4,6,8,60
2.002808172207669,10,4,6,8,61
2.002808172207669,10,4,6,8,62
2.002808172207669,10,4,6,8,63
2.002808172207669,10,4,6,8,64
2.002808172207669,10,4,6,8,65
2.002808172207669,10,4,6,8,66
2.002808172207669,10,4,6,8,67
2.002808172207669,10,4,6,8,68
2.0066003274026554,10,4,6,8,69
2.0066003274026554,10,4,6,8,70
2.0066003274026554,10,4,6,8,71
2.0066003274026554,10,4,6,8,72
2.0066003274026554,10,4,6,8,73
2.0066003274026554,10,4,6,8,74
2.0066003274026554,10,4,6,8,75
2.0066003274026554,10,4,6,8,76
2.010317285138123,10,4,6,8,77
2.010317285138123,10,4,6,8,78
2.010317285138123,10,4,6,8,79
2.010317285138123,10,4,6,8,80
2.010317285138123,10,4,6,8,81
2.010317285138123,10,4,6,8,82
2.010317285138123,10,4,6,8,83
2.010317285138123,10,4,6,8,84
2.0139576284682223,10,4,6,8,85
2.0139576284682223,10,4,6,8,86
2.0139576284682223,10,4,6,8,87
2.0139576284682223,10,4,6,8,88
2.0139576284682223,10,4,6,8,89
2.0139576284682223,10,4,6,8,90
2.0139576284682223,10,4,6,8,91
2.0139576284682223,10,4,6,8,92
2.0175199555970886,10,4,6,8,93
2.0175199555970886,10,4,6,8,94
2.0175199555970886,10,4,6,8,95
2.0175199555970886,10,4,6,8,96
2.0175199555970886,10,4,6,8,97
2.0175199555970886,10,4,6,8,98
2.0175199555970886,10,4,6,8,99
2.0175199555970886,10,4,6,8,100
2.02100288121817,10,4,6,8,101
2.02100288121817,10,4,6,8,102
2.02100288121817,10,4,6,8,103
2.02100288121817,10,4,6,8,104
2.02100288121817,10,4,6,8,105
2.02100288121817,10,4,6,8,106
2.02100288121817,10,4,6,8,107
2.02100288121817,10,4,6,8,108
2.024405037860034,10,4,6,8,109
2.024405037860034,10,4,6,8,110
2.024405037860034,10,4,6,8,111
2.024405037860034,10,4,6,8,112
2.024405037860034,10,4,6,8,113
2.024405037860034,10,4,6,8,114
2.024405037860034,10,4,6,8,115
2.024405037860034,10,4,6,8,116
2.0277250772364344,10,4,6,8,117
2.0277250772364344,10,4,6,8,118
2.0277250772364344,10,4,6,8,119
2.0277250772364344,10,4,6,8,120
2.0277250772364344,10,4,6,8,121
2.0277250772364344,10,4,6,8,122
2.0277250772364344,10,4,6,8,123
2.0277250772364344,10,4,6,8,124
2.0309616715983583,10,4,6,8,125
2.0309616715983583,10,4,6,8,126
2.0309616715983583,10,4,6,8,127
2.0309616715983583,10,4,6,8,128
2.0309616715983583,10,4,6,8,129
2.0309616715983583,10,4,6,8,130
2.0309616715983583,10,4,6,8,131
2.0309616715983583,10,4,6,8,132
2.034113515085679,10,4,6,8,133
2.034113515085679,10,4,6,8,134
2.034113515085679,10,4,6,8,135
2.034113515085679,10,4,6,8,136
2.034113515085679,10,4,6,8,137
2.034113515085679,10,4,6,8,138
2.034113515085679,10,4,6,8,139
2.034113515085679,10,4,6,8,140
2.037179325076019,10,4,6,8,141
2.037179325076019,10,4,6,8,142
2.037179325076019,10,4,6,8,143
2.037179325076019,10,4,6,8,144
2.037179325076019,10,4,6,8,145
2.037179325076019,10,4,6,8,146
2.037179325076019,10,4,6,8,147
2.037179325076019,10,4,6,8,148
2.040157843528355,10,4,6,8,149
2.040157843528355,10,4,6,8,150
2.040157843528355,10,4,6,8,151
2.040157843528355,10,4,6,8,152
2.040157843528355,10,4,6,8,153
2.040157843528355,10,4,6,8,154
2.040157843528355,10,4,6,8,155
2.040157843528355,10,4,6,8,156
2.043047838318841,10,4,6,8,157
2.043047838318841,10,4,6,8,158
2.043047838318841,10,4,6,8,159
2.043047838318841,10,4,6,8,160
2.043047838318841,10,4,6,8,161
2.043047838318841,10,4,7,1,162
2.043047838318841,10,4,7,1,163
2.043047838318841,10,4,7,1,164
2.04584810456632,10,4,7,1,165
2.04584810456632,10,4,7,1,166
2.04584810456632,10,4,7,1,167
2.04584810456632,10,4,7,1,168
2.04584810456632,10,4,7,1,169
2.04584810456632,10,4,7,1,170
2.04584810456632,10,4,7,1,171
2.04584810456632,10,4,7,1,172
2.048557465944925,10,4,7,1,173
2.048557465944925,10,4,7,1,174
2.048557465944925,10,4,7,1,175
2.048557465944925,10,4,7,1,176
2.048557465944925,10,4,7,1,177
2.048557465944925,10,4,7,1,178
2.048557465944925,10,4,7,1,179
2.048557465944925,10,4,7,1,180
2.051174775981164,10,4,7,1,181
2.051174775981164,10,4,7,1,182
2.051174775981164,10,4,7,1,183
2.051174775981164,10,4,7,1,184
2.051174775981164,10,4,7,1,185
2.051174775981164,10,4,7,1,186
2.051174775981164,10,4,7,1,187
2.051174775981164,10,4,7,1,188
2.053698919332879,10,4,7,1,189
2.053698919332879,10,4,7,1,190
2.013817473985147,10,4,7,1,191
2.013817473985147,10,4,7,1,192
2.013817473985147,10,4,7,1,193
2.013817473985147,10,4,7,1,194
2.013817473985147,10,4,7,1,195
2.013817473985147,10,4,7,1,196
2.016200180805617,10,4,7,1,197
2.016200180805617,10,4,7,1,198
2.016200180805617,10,4,7,1,199
2.016200180805617,10,4,7,1,200
2.016200180805617,10,4,7,1,201
2.016200180805617,10,4,7,1,202
2.016200180805617,10,4,7,1,203
2.016200180805617,10,4,7,1,204
2.018489439302098,10,4,7,1,205
2.018489439302098,10,4,7,1,206
2.018489439302098,10,4,7,1,207
2.018489439302098,10,4,7,1,208
2.018489439302098,10,4,7,1,209
2.018489439302098,10,4,7,1,210
2.018489439302098,10,4,7,1,211
2.018489439302098,10,4,7,1,212
2.020684254680116,10,4,7,1,213
2.020684254680116,10,4,7,1,214
2.020684254680116,10,4,7,1,215
2.020684254680116,10,4,7,1,216
2.020684254680116,10,4,7,1,217
2.020684254680116,10,4,7,1,218
2.020684254680116,10,4,7,1,219
2.020684254680116,10,4,7,1,220
2.022783667459024,10,4,7,1,221
2.022783667459024,10,4,7,1,222
2.022783667459024,10,4,7,1,223
2.022783667459024,10,4,7,1,224
2.022783667459024,10,4,7,1,225
2.022783667459024,10,4,7,1,226
2.022783667459024,10,4,7,1,227
2.022783667459024,10,4,7,1,228
2.0247867545985936,10,4,7,1,229
2.0247867545985936,10,4,7,1,230
2.0247867545985936,10,4,7,1,231
2.0247867545985936,10,4,7,1,232
2.0247867545985936,10,4,7,1,233
2.0247867545985936,10,4,7,1,234
2.0247867545985936,10,4,7,1,235
2.0247867545985936,10,4,7,1,236
2.026692630592498,10,4,7,1,237
2.026692630592498,10,4,7,1,238
2.026692630592498,10,4,7,1,239
2.026692630592498,10,4,7,1,240
2.026692630592498,10,4,7,1,241
2.026692630592498,10,4,7,1,242
2.026692630592498,10,4,7,1,243
2.026692630592498,10,4,7,1,244
2.0285004485262226,10,4,7,1,245
2.0285004485262226,10,4,7,1,246
2.0285004485262226,10,4,7,1,247
2.0285004485262226,10,4,7,1,248
2.0285004485262226,10,4,7,1,249
2.0285004485262226,10,4,7,1,250
2.0285004485262226,10,4,7,1,251
2.0285004485262226,10,4,7,1,252
2.0302094010970158,10,4,7,1,253
2.0302094010970158,10,4,7,1,254
2.0302094010970158,10,4,7,1,255
2.0302094010970158,10,4,7,1,0
2.0302094010970158,10,4,7,1,1
2.0302094010970158,10,4,7,1,2
2.0302094010970158,10,4,7,1,3
2.0302094010970158,10,4,7,1,4
2.03181872159351,10,4,7,1,5
2.03181872159351,10,4,7,2,6
2.03181872159351,10,4,7,2,7
2.03181872159351,10,4,7,2,8
2.03181872159351,10,4,7,2,9
2.03181872159351,10,4,7,2,10
2.03181872159351,10,4,7,2,11
2.03181872159351,10,4,7,2,12
2.0333276848327624,10,4,7,2,13
2.0333276848327624,10,4,7,2,14
2.0333276848327624,10,4,7,2,15
2.0333276848327624,10,4,7,2,16
2.0333276848327624,10,4,7,2,17
2.0333276848327624,10,4,7,2,18
2.0333276848327624,10,4,7,2,19
2.0333276848327624,10,4,7,2,20
2.0347356080524954,10,4,7,2,21
2.0347356080524954,10,4,7,2,22
2.0347356080524954,10,4,7,2,23
2.0347356080524954,10,4,7,2,24
2.0347356080524954,10,4,7,2,25
2.0347356080524954,10,4,7,2,26
2.0347356080524954,10,4,7,2,27
2.0347356080524954,10,4,7,2,28
2.0360418517564356,10,4,7,2,29
2.0360418517564356,10,4,7,2,30
2.0360418517564356,10,4,7,2,31
2.0360418517564356,10,4,7,2,32
2.0360418517564356,10,4,7,2,33
2.0360418517564356,10,4,7,2,34
2.0360418517564356,10,4,7,2,35
2.0360418517564356,10,4,7,2,36
2.037245820510735,10,4,7,2,37
2.037245820510735,10,4,7,2,38
2.037245820510735,10,4,7,2,39
2.037245820510735,10,4,7,2,40
2.037245820510735,10,4,7,2,41
2.037245820510735,10,4,7,2,42
2.037245820510735,10,4,7,2,43
2.037245820510735,10,4,7,2,44
2.038346963689541,10,4,7,2,45
2.038346963689541,10,4,7,2,46
2.038346963689541,10,4,7,2,47
2.038346963689541,10,4,7,2,48
2.038346963689541,10,4,7,2,49
2.038346963689541,10,4,7,2,50
2.038346963689541,10,4,7,2,51
2.038346963689541,10,4,7,2,52
2.0393447761679226,10,4,7,2,53
2.0393447761679226,10,4,7,2,54
2.0393447761679226,10,4,7,2,55
2.0393447761679226,10,4,7,2,56
2.0393447761679226,10,4,7,2,57
2.0393447761679226,10,4,7,2,58
2.0393447761679226,10,4,7,2,59
2.0393447761679226,10,4,7,2,60
2.040238798960454,10,4,7,2,61
2.040238798960454,10,4,7,2,62
2.040238798960454,10,4,7,2,63
2.040238798960454,10,4,7,2,64
2.040238798960454,10,4,7,2,65
2.040238798960454,10,4,7,2,66
2.040238798960454,10,4,7,2,67
2.040238798960454,10,4,7,2,68
2.041028619803883,10,4,7,2,69
2.041028619803883,10,4,7,2,70
2.041028619803883,10,4,7,2,71
2.041028619803883,10,4,7,2,72
2.041028619803883,10,4,7,2,73
2.041028619803883,10,4,7,2,74
2.041028619803883,10,4,7,2,75
2.041028619803883,10,4,7,2,76
2.0417138736824496,10,4,7,2,77
2.0417138736824496,10,4,7,2,78
2.0417138736824496,10,4,7,2,79
2.0417138736824496,10,4,7,2,80
2.0417138736824496,10,4,7,2,81
2.0417138736824496,10,4,7,2,82
2.0417138736824496,10,4,7,2,83
2.0417138736824496,10,4,7,2,84
2.042294243294547,10,4,7,2,85
2.042294243294547,10,4,7,2,86
2.042294243294547,10,4,7,2,87
2.042294243294547,10,4,7,2,88
2.042294243294547,10,4,7,2,89
2.042294243294547,10,4,7,2,90
2.042294243294547,10,4,7,2,91
2.042294243294547,10,4,7,2,92
2.0427694594595587,10,4,7,2,93
2.0427694594595587,10,4,7,2,94
2.0427694594595587,10,4,7,2,95
2.0427694594595587,10,4,7,2,96
2.0427694594595587,10,4,7,2,97
2.0427694594595587,10,4,7,2,98
2.0427694594595587,10,4,7,2,99
2.0427694594595587,10,4,7,2,100
2.0431393014638624,10,4,7,2,101
2.0431393014638624,10,4,7,2,102
2.0431393014638624,10,4,7,2,103
2.0431393014638624,10,4,7,2,104
2.0431393014638624,10,4,7,2,105
2.0431393014638624,10,4,7,3,106
2.0431393014638624,10,4,7,3,107
2.0431393014638624,10,4,7,3,108
2.0434035973451135,10,4,7,3,109
2.0434035973451135,10,4,7,3,110
2.0434035973451135,10,4,7,3,111
2.0434035973451135,10,4,7,3,112
2.0434035973451135,10,4,7,3,113
2.0434035973451135,10,4,7,3,114
2.0434035973451135,10,4,7,3,115
2.0434035973451135,10,4,7,3,116
2.0435622241141105,10,4,7,3,117
2.0435622241141105,10,4,7,3,118
2.0435622241141105,10,4,7,3,119
2.0435622241141105,10,4,7,3,120
2.0435622241141105,10,4,7,3,121
2.0435622241141105,10,4,7,3,122
2.0435622241141105,10,4,7,3,123
2.0435622241141105,10,4,7,3,124
2.043615107913669,10,4,7,3,125
2.043615107913669,10,4,7,3,126
2.043615107913669,10,4,7,3,127
2.043615107913669,10,4,7,3,128
2.043615107913669,10,4,7,3,129
2.043615107913669,10,4,7,3,130
2.043615107913669,10,4,7,3,131
2.043615107913669,10,4,7,3,132
2.084032731599784,10,4,7,3,133
2.084032731599784,10,4,7,3,134
2.084032731599784,10,4,7,3,135
2.084032731599784,10,4,7,3,136
2.084032731599784,10,4,7,3,137
2.084032731599784,10,4,7,3,138
2.084032731599784,10,4,7,3,139
2.084032731599784,10,4,7,3,140
2.0838709634016856,10,4,7,3,141
2.0838709634016856,10,4,7,3,142
2.0838709634016856,10,4,7,3,143
2.0838709634016856,10,4,7,3,144
2.0838709634016856,10,4,7,3,145
2.0838709634016856,10,4,7,3,146
2.0838709634016856,10,4,7,3,147
2.0838709634016856,10,4,7,3,148
2.083601433430513,10,4,7,3,149
2.083601433430513,10,4,7,3,150
2.083601433430513,10,4,7,3,151
2.083601433430513,10,4,7,3,152
2.083601433430513,10,4,7,3,153
2.083601433430513,10,4,7,3,154
2.083601433430513,10,4,7,3,155
2.083601433430513,10,4,7,3,156
2.083224267111135,10,4,7,3,157
2.083224267111135,10,4,7,3,158
2.083224267111135,10,4,7,3,159
2.083224267111135,10,4,7,3,160
2.083224267111135,10,4,7,3,161
2.083224267111135,10,4,7,3,162
2.083224267111135,10,4,7,3,163
2.083224267111135,10,4,7,3,164
2.082739639811421,10,4,7,3,165
2.082739639811421,10,4,7,3,166
2.082739639811421,10,4,7,3,167
2.082739639811421,10,4,7,3,168
2.082739639811421,10,4,7,3,169
2.082739639811421,10,4,7,3,170
2.082739639811421,10,4,7,3,171
2.082739639811421,10,4,7,3,172
2.0821477766159853,10,4,7,3,173
2.0821477766159853,10,4,7,3,174
2.0821477766159853,10,4,7,3,175
2.0821477766159853,10,4,7,3,176
2.0821477766159853,10,4,7,3,177
2.0821477766159853,10,4,7,3,178
2.0821477766159853,10,4,7,3,179
2.0821477766159853,10,4,7,3,180
2.0814489520362693,10,4,7,3,181
2.0814489520362693,10,4,7,3,182
2.0814489520362693,10,4,7,3,183
2.0814489520362693,10,4,7,3,184
2.0814489520362693,10,4,7,3,185
2.0814489520362693,10,4,7,3,186
2.0814489520362693,10,4,7,3,187
2.0814489520362693,10,4,7,3,188
2.080643489657692,10,4,7,3,189
2.080643489657692,10,4,7,3,190
2.080643489657692,10,4,7,3,191
2.080643489657692,10,4,7,3,192
2.080643489657692,10,4,7,3,193
2.080643489657692,10,4,7,3,194
2.080643489657692,10,4,7,3,195
2.080643489657692,10,4,7,3,196
2.0797317617247493,10,4,7,3,197
2.0797317617247493,10,4,7,3,198
2.0797317617247493,10,4,7,3,199
2.0797317617247493,10,4,7,3,200
2.0797317617247493,10,4,7,3,201
2.0797317617247493,10,4,7,3,202
2.0797317617247493,10,4,7,3,203
2.0797317617247493,10,4,7,3,204
2.078714188665114,10,4,7,3,205
2.078714188665114,10,4,7,5,206
2.078714188665114,10,4,7,5,207
2.078714188665114,10,4,7,5,208
2.078714188665114,10,4,7,5,209
2.078714188665114,10,4,7,5,210
2.078714188665114,10,4,7,5,211
2.078714188665114,10,4,7,5,212
2.077591238553916,10,4,7,5,213
2.077591238553916,10,4,7,5,214
2.077591238553916,10,4,7,5,215
2.077591238553916,10,4,7,5,216
2.077591238553916,10,4,7,5,217
2.077591238553916,10,4,7,5,218
2.077591238553916,10,4,7,5,219
2.077591238553916,10,4,7,5,220
2.076363426519531,10,4,7,5,221
2.076363426519531,10,4,7,5,222
2.076363426519531,10,4,7,5,223
2.076363426519531,10,4,7,5,224
2.076363426519531,10,4,7,5,225
2.076363426519531,10,4,7,5,226
2.076363426519531,10,4,7,5,227
2.076363426519531,10,4,7,5,228
2.075031314092351,10,4,7,5,229
2.075031314092351,10,4,7,5,230
2.075031314092351,10,4,7,5,231
2.075031314092351,10,4,7,5,232
2.075031314092351,10,4,7,5,233
2.075031314092351,10,4,7,5,234
2.075031314092351,10,4,7,5,235
2.075031314092351,10,4,7,5,236
2.0735955084981392,10,4,7,5,237
2.0735955084981392,10,4,7,5,238
2.0735955084981392,10,4,7,5,239
2.0735955084981392,10,4,7,5,240
2.0735955084981392,10,4,7,5,241
2.0735955084981392,10,4,7,5,242
2.0735955084981392,10,4,7,5,243
2.0735955084981392,10,4,7,5,244
2.0720566618976908,10,4,7,5,245
2.0720566618976908,10,4,7,5,246
2.0720566618976908,10,4,7,5,247
2.0720566618976908,10,4,7,5,248
2.0720566618976908,10,4,7,5,249
2.0720566618976908,10,4,7,5,250
2.0720566618976908,10,4,7,5,251
2.0720566618976908,10,4,7,5,252
2.070415470574641,10,4,7,5,253
2.070415470574641,10,4,7,5,254
2.070415470574641,10,4,7,5,255
2.070415470574641,10,4,7,5,0
2.070415470574641,10,4,7,5,1
2.070415470574641,10,4,7,5,2
2.070415470574641,10,4,7,5,3
2.070415470574641,10,4,7,5,4
2.0686726740733845,10,4,7,5,5
2.0686726740733845,10,4,7,5,6
2.0686726740733845,10,4,7,5,7
2.0686726740733845,10,4,7,5,8
2.0686726740733845,10,4,7,5,9
2.0686726740733845,10,4,7,5,10
2.0686726740733845,10,4,7,5,11
2.0686726740733845,10,4,7,5,12
2.066829054289168,10,4,7,5,13
2.066829054289168,10,4,7,5,14
2.066829054289168,10,4,7,5,15
2.066829054289168,10,4,7,5,16
2.066829054289168,10,4,7,5,17
2.066829054289168,10,4,7,5,18
2.066829054289168,10,4,7,5,19
2.066829054289168,10,4,7,5,20
2.064885434512487,10,4,7,5,21
2.064885434512487,10,4,7,5,22
2.064885434512487,10,4,7,5,23
2.064885434512487,10,4,7,5,24
2.064885434512487,10,4,7,5,25
2.064885434512487,10,4,7,5,26
2.064885434512487,10,4,7,5,27
2.064885434512487,10,4,7,5,28
2.0628426784300684,10,4,7,5,29
2.0628426784300684,10,4,7,5,30
2.0628426784300684,10,4,7,5,31
2.0628426784300684,10,4,7,5,32
2.0628426784300684,10,4,7,5,33
2.0628426784300684,10,4,7,5,34
2.0628426784300684,10,4,7,5,35
2.0628426784300684,10,4,7,5,36
2.060701689084721,10,4,7,5,37
2.060701689084721,10,4,7,5,38
2.060701689084721,10,4,7,5,39
2.060701689084721,10,4,7,5,40
2.060701689084721,10,4,7,5,41
2.060701689084721,10,4,7,5,42
2.060701689084721,10,4,7,5,43
2.060701689084721,10,4,7,5,44
2.0584634077964714,10,4,7,5,45
2.0584634077964714,10,4,7,5,46
2.0584634077964714,10,4,7,5,47
2.0584634077964714,10,4,7,5,48
2.0584634077964714,10,4,7,5,49
2.0584634077964714,10,4,7,6,50
2.0584634077964714,10,4,7,6,51
2.0584634077964714,10,4,7,6,52
2.0561288130474287,10,4,7,6,53
2.0561288130474287,10,4,7,6,54
2.0561288130474287,10,4,7,6,55
2.0561288130474287,10,4,7,6,56
2.0561288130474287,10,4,7,6,57
2.0561288130474287,10,4,7,6,58
2.0561288130474287,10,4,7,6,59
2.0561288130474287,10,4,7,6,60
2.053698919332879,10,4,7,6,61
2.053698919332879,10,4,7,6,62
2.053698919332879,10,4,7,6,63
2.053698919332879,10,4,7,6,64
2.053698919332879,10,4,7,6,65
2.053698919332879,10,4,7,6,66
2.053698919332879,10,4,7,6,67
2.053698919332879,10,4,7,6,68
2.051174775981164,10,4,7,6,69
2.051174775981164,10,4,7,6,70
2.051174775981164,10,4,7,6,71
2.051174775981164,10,4,7,6,72
2.051174775981164,10,4,7,6,73
2.051174775981164,10,4,7,6,74
2.1662820052855176,10,4,7,6,75
2.1662820052855176,10,4,7,6,76
2.1635178178061523,10,4,7,6,77
2.1635178178061523,10,4,7,6,78
2.1635178178061523,10,4,7,6,79
2.1635178178061523,10,4,7,6,80
2.1635178178061523,10,4,7,6,81
2.1635178178061523,10,4,7,6,82
2.1635178178061523,10,4,7,6,83
2.1635178178061523,10,4,7,6,84
2.160656413273972,10,4,7,6,85
2.160656413273972,10,4,7,6,86
2.160656413273972,10,4,7,6,87
2.160656413273972,10,4,7,6,88
2.160656413273972,10,4,7,6,89
2.160656413273972,10,4,7,6,90
2.160656413273972,10,4,7,6,91
2.160656413273972,10,4,7,6,92
2.157699002499933,10,4,7,6,93
2.157699002499933,10,4,7,6,94
2.157699002499933,10,4,7,6,95
2.157699002499933,10,4,7,6,96
2.157699002499933,10,4,7,6,97
2.157699002499933,10,4,7,6,98
2.157699002499933,10,4,7,6,99
2.157699002499933,10,4,7,6,100
2.1546468278226176,10,4,7,6,101
2.1546468278226176,10,4,7,6,102
2.1546468278226176,10,4,7,6,103
2.1546468278226176,10,4,7,6,104
2.1546468278226176,10,4,7,6,105
2.1546468278226176,10,4,7,6,106
2.1546468278226176,10,4,7,6,107
2.1546468278226176,10,4,7,6,108
2.1515011617383517,10,4,7,6,109
2.1515011617383517,10,4,7,6,110
2.1515011617383517,10,4,7,6,111
2.1515011617383517,10,4,7,6,112
2.1515011617383517,10,4,7,6,113
2.1515011617383517,10,4,7,6,114
2.1515011617383517,10,4,7,6,115
2.1515011617383517,10,4,7,6,116
2.1482633055149476,10,4,7,6,117
2.1482633055149476,10,4,7,6,118
2.1482633055149476,10,4,7,6,119
2.1482633055149476,10,4,7,6,120
2.1482633055149476,10,4,7,6,121
2.1482633055149476,10,4,7,6,122
2.1482633055149476,10,4,7,6,123
2.1482633055149476,10,4,7,6,124
2.1449345877918113,10,4,7,6,125
2.1449345877918113,10,4,7,6,126
2.1449345877918113,10,4,7,6,127
2.1449345877918113,10,4,7,6,128
2.1449345877918113,10,4,7,6,129
2.1449345877918113,10,4,7,6,130
2.1449345877918113,10,4,7,6,131
2.1449345877918113,10,4,7,6,132
2.1415163631691483,10,4,7,6,133
2.1415163631691483,10,4,7,6,134
2.1415163631691483,10,4,7,6,135
2.1415163631691483,10,4,7,6,136
2.1415163631691483,10,4,7,6,137
2.1415163631691483,10,4,7,6,138
2.1415163631691483,10,4,7,6,139
2.1415163631691483,10,4,7,6,140
2.138010010788963,10,4,7,6,141
2.138010010788963,10,4,7,6,142
2.138010010788963,10,4,7,6,143
2.138010010788963,10,4,7,6,144
2.138010010788963,10,4,7,6,145
2.138010010788963,10,4,7,6,146
2.138010010788963,10,4,7,6,147
2.138010010788963,10,4,7,6,148
2.1344169329105047,10,4,7,6,149
2.1344169329105047,10,4,7,7,150
2.1344169329105047,10,4,7,7,151
2.1344169329105047,10,4,7,7,152
2.1344169329105047,10,4,7,7,153
2.1344169329105047,10,4,7,7,154
2.1344169329105047,10,4,7,7,155
2.1344169329105047,10,4,7,7,156
2.13073855348275,10,4,7,7,157
2.13073855348275,10,4,7,7,158
2.13073855348275,10,4,7,7,159
2.13073855348275,10,4,7,7,160
2.13073855348275,10,4,7,7,161
2.13073855348275,10,4,7,7,162
2.13073855348275,10,4,7,7,163
2.13073855348275,10,4,7,7,164
2.1269763167164992,10,4,7,7,165
2.1269763167164992,10,4,7,7,166
2.1269763167164992,10,4,7,7,167
2.1269763167164992,10,4,7,7,168
2.1269763167164992,10,4,7,7,169
2.1269763167164992,10,4,7,7,170
2.1269763167164992,10,4,7,7,171
2.1269763167164992,10,4,7,7,172
2.123131685658533,10,4,7,7,173
2.123131685658533,10,4,7,7,174
2.123131685658533,10,4,7,7,175
2.123131685658533,10,4,7,7,176
2.123131685658533,10,4,7,7,177
2.123131685658533,10,4,7,7,178
2.123131685658533,10,4,7,7,179
2.123131685658533,10,4,7,7,180
2.1192061407702876,10,4,7,7,181
2.1192061407702876,10,4,7,7,182
2.1192061407702876,10,4,7,7,183
2.1192061407702876,10,4,7,7,184
2.1192061407702876,10,4,7,7,185
2.1192061407702876,10,4,7,7,186
2.1192061407702876,10,4,7,7,187
2.1192061407702876,10,4,7,7,188
2.1152011785133684,10,4,7,7,189
2.1152011785133684,10,4,7,7,190
2.1152011785133684,10,4,7,7,191
2.1152011785133684,10,4,7,7,192
2.1152011785133684,10,4,7,7,193
2.1152011785133684,10,4,7,7,194
2.1152011785133684,10,4,7,7,195
2.1152011785133684,10,4,7,7,196
2.111118309944178,10,4,7,7,197
2.111118309944178,10,4,7,7,198
2.111118309944178,10,4,7,7,199
2.111118309944178,10,4,7,7,200
2.111118309944178,10,4,7,7,201
2.111118309944178,10,4,7,7,202
2.111118309944178,10,4,7,7,203
2.111118309944178,10,4,7,7,204
2.1069590593198506,10,4,7,7,205
2.1069590593198506,10,4,7,7,206
2.1069590593198506,10,4,7,7,207
2.1069590593198506,10,4,7,7,208
2.1069590593198506,10,4,7,7,209
2.1069590593198506,10,4,7,7,210
2.1069590593198506,10,4,7,7,211
2.1069590593198506,10,4,7,7,212
2.1027249627175726,10,4,7,7,213
2.1027249627175726,10,4,7,7,214
2.1027249627175726,10,4,7,7,215
2.1027249627175726,10,4,7,7,216
2.1027249627175726,10,4,7,7,217
2.1027249627175726,10,4,7,7,218
2.1027249627175726,10,4,7,7,219
2.1027249627175726,10,4,7,7,220
2.098417566669325,10,4,7,7,221
2.098417566669325,10,4,7,7,222
2.098417566669325,10,4,7,7,223
2.098417566669325,10,4,7,7,224
2.098417566669325,10,4,7,7,225
2.098417566669325,10,4,7,7,226
2.098417566669325,10,4,7,7,227
2.098417566669325,10,4,7,7,228
2.094038426813938,10,4,7,7,229
2.094038426813938,10,4,7,7,230
2.094038426813938,10,4,7,7,231
2.094038426813938,10,4,7,7,232
2.094038426813938,10,4,7,7,233
2.094038426813938,10,4,7,7,234
2.094038426813938,10,4,7,7,235
2.094038426813938,10,4,7,7,236
2.0895891065682854,10,4,7,7,237
2.0895891065682854,10,4,7,7,238
2.0895891065682854,10,4,7,7,239
2.0895891065682854,10,4,7,7,240
2.0895891065682854,10,4,7,7,241
2.0895891065682854,10,4,7,7,242
2.0895891065682854,10,4,7,7,243
2.0895891065682854,10,4,7,7,244
2.0850711758193525,10,4,7,7,245
2.0850711758193525,10,4,7,7,246
2.0850711758193525,10,4,7,7,247
2.0850711758193525,10,4,7,7,248
2.0850711758193525,10,4,7,7,249
2.0850711758193525,10,4,7,8,250
2.0850711758193525,10,4,7,8,251
2.0850711758193525,10,4,7,8,252
2.080486209638773,10,4,7,8,253
2.080486209638773,10,4,7,8,254
2.080486209638773,10,4,7,8,255
2.080486209638773,10,4,7,8,0
2.080486209638773,10,4,7,8,1
2.080486209638773,10,4,7,8,2
2.080486209638773,10,4,7,8,3
2.080486209638773,10,4,7,8,4
2.0758357870213784,10,4,7,8,5
2.0758357870213784,10,4,7,8,6
2.0758357870213784,10,4,7,8,7
2.0758357870213784,10,4,7,8,8
2.0758357870213784,10,4,7,8,9
2.0758357870213784,10,4,7,8,10
2.0758357870213784,10,4,7,8,11
2.0758357870213784,10,4,7,8,12
2.0711214896491654,10,4,7,8,13
2.0711214896491654,10,4,7,8,14
2.0711214896491654,10,4,7,8,15
2.0711214896491654,10,4,7,8,16
2.2425701361126396,10,4,7,8,17
2.2425701361126396,10,4,7,8,18
2.2425701361126396,10,4,7,8,19
2.2425701361126396,10,4,7,8,20
2.2373981383212054,10,4,7,8,21
2.2373981383212054,10,4,7,8,22
2.2373981383212054,10,4,7,8,23
2.2373981383212054,10,4,7,8,24
2.2373981383212054,10,4,7,8,25
2.2373981383212054,10,4,7,8,26
2.2373981383212054,10,4,7,8,27
2.2373981383212054,10,4,7,8,28
2.2321604069360355,10,4,7,8,29
2.2321604069360355,10,4,7,8,30
2.2321604069360355,10,4,7,8,31
2.2321604069360355,10,4,7,8,32
2.2321604069360355,10,4,7,8,33
2.2321604069360355,10,4,7,8,34
2.2321604069360355,10,4,7,8,35
2.2321604069360355,10,4,7,8,36
2.226858655566348,10,4,7,8,37
2.226858655566348,10,4,7,8,38
2.226858655566348,10,4,7,8,39
2.226858655566348,10,4,7,8,40
2.226858655566348,10,4,7,8,41
2.226858655566348,10,4,7,8,42
2.226858655566348,10,4,7,8,43
2.226858655566348,10,4,7,8,44
2.2214945956796313,10,4,7,8,45
2.2214945956796313,10,4,7,8,46
2.2214945956796313,10,4,7,8,47
2.2214945956796313,10,4,7,8,48
2.2214945956796313,10,4,7,8,49
2.2214945956796313,10,4,7,8,50
2.2214945956796313,10,4,7,8,51
2.2214945956796313,10,4,7,8,52
2.2160699354200655,10,4,7,8,53
2.2160699354200655,10,4,7,8,54
2.2160699354200655,10,4,7,8,55
2.2160699354200655,10,4,7,8,56
2.2160699354200655,10,4,7,8,57
2.2160699354200655,10,4,7,8,58
2.2160699354200655,10,4,7,8,59
2.2160699354200655,10,4,7,8,60
2.2105863784613597,10,4,7,8,61
2.2105863784613597,10,4,7,8,62
2.2105863784613597,10,4,7,8,63
2.2105863784613597,10,4,7,8,64
2.2105863784613597,10,4,7,8,65
2.2105863784613597,10,4,7,8,66
2.2105863784613597,10,4,7,8,67
2.2105863784613597,10,4,7,8,68
2.2050456228947755,10,4,7,8,69
2.2050456228947755,10,4,7,8,70
2.2050456228947755,10,4,7,8,71
2.2050456228947755,10,4,7,8,72
2.2050456228947755,10,4,7,8,73
2.2050456228947755,10,4,7,8,74
2.2050456228947755,10,4,7,8,75
2.2050456228947755,10,4,7,8,76
2.1994493601530025,10,4,7,8,77
2.1994493601530025,10,4,7,8,78
2.1994493601530025,10,4,7,8,79
2.1994493601530025,10,4,7,8,80
2.1994493601530025,10,4,7,8,81
2.1994493601530025,10,4,7,8,82
2.1994493601530025,10,4,7,8,83
2.1994493601530025,10,4,7,8,84
2.193799273970454,10,4,7,8,85
2.193799273970454,10,4,7,8,86
2.193799273970454,10,4,7,8,87
2.193799273970454,10,4,7,8,88
2.193799273970454,10,4,7,8,89
2.193799273970454,10,4,7,8,90
2.193799273970454,10,4,7,8,91
2.193799273970454,10,4,7,8,92
2.1880970393804464,10,4,7,8,93
2.1880970393804464,10,4,7,8,94
2.1880970393804464,10,4,7,8,95
2.1880970393804464,10,4,7,8,96
2.1880970393804464,10,4,7,8,97
2.1880970393804464,10,4,7,8,98
2.1880970393804464,10,4,7,8,99
2.1880970393804464,10,4,7,8,100
2.1823443217496314,10,4,7,8,101
2.1823443217496314,10,4,7,8,102
2.1823443217496314,10,4,7,8,103
2.1823443217496314,10,4,7,8,104
2.1823443217496314,10,4,7,8,105
2.1823443217496314,10,4,7,8,106
2.1823443217496314,10,4,7,8,107
2.1823443217496314,10,4,7,8,108
2.1765427758499682,10,4,7,8,109
2.1765427758499682,10,4,7,8,110
2.1765427758499682,10,4,7,8,111
2.1765427758499682,10,4,7,8,112
2.1765427758499682,10,4,7,8,113
2.1765427758499682,10,4,7,8,114
2.1765427758499682,10,4,7,8,115
2.1765427758499682,10,4,7,8,116
2.170694044968409,10,4,7,8,117
2.170694044968409,10,4,7,8,118
2.170694044968409,10,4,7,8,119
2.170694044968409,10,4,7,8,120
2.170694044968409,10,4,7,8,121
2.170694044968409,10,4,7,8,122
2.170694044968409,10,4,7,8,123
2.170694044968409,10,4,7,8,124
2.164799760054416,10,4,7,8,125
2.164799760054416,10,4,7,8,126
2.164799760054416,10,4,7,8,127
2.164799760054416,10,4,7,8,128
2.164799760054416,10,4,7,8,129
2.164799760054416,10,4,7,8,130
2.164799760054416,10,4,7,8,131
2.164799760054416,10,4,7,8,132
2.1588615389053123,10,4,7,8,133
2.1588615389053123,10,4,7,8,134
2.1588615389053123,10,4,7,8,135
2.1588615389053123,10,4,7,8,136
2.1588615389053123,10,4,7,8,137
2.1588615389053123,10,4,7,8,138
2.1588615389053123,10,4,7,8,139
2.1588615389053123,10,4,7,8,140
2.152880985389425,10,4,7,8,141
2.152880985389425,10,4,7,8,142
2.152880985389425,10,4,7,8,143
2.152880985389425,10,4,7,8,144
2.152880985389425,10,4,7,8,145
2.152880985389425,10,4,7,8,146
2.152880985389425,10,4,7,8,147
2.152880985389425,10,4,7,8,148
2.146859688706866,10,4,7,8,149
2.146859688706866,10,4,7,8,150
2.146859688706866,10,4,7,8,151
2.146859688706866,10,4,7,8,152
2.146859688706866,10,4,7,8,153
2.146859688706866,10,4,7,8,154
2.146859688706866,10,4,7,8,155
2.146859688706866,10,4,7,8,156
2.140799222687759,10,4,7,8,157
2.140799222687759,10,4,7,8,158
2.140799222687759,10,4,7,8,159
2.140799222687759,10,4,7,8,160
2.140799222687759,10,4,7,8,161
2.140799222687759,10,4,7,8,162
2.140799222687759,10,4,7,8,163
2.140799222687759,10,4,7,8,164
2.134701145127631,10,4,7,8,165
2.134701145127631,10,4,7,8,166
2.134701145127631,10,4,7,8,167
2.134701145127631,10,4,7,8,168
2.134701145127631,10,4,7,8,169
2.134701145127631,10,4,7,8,170
2.134701145127631,10,4,7,8,171
2.134701145127631,10,4,7,8,172
2.128566997159623,10,4,7,8,173
2.128566997159623,10,4,7,8,174
2.128566997159623,10,4,7,8,175
2.128566997159623,10,4,7,8,176
2.128566997159623,10,4,7,8,177
2.128566997159623,10,4,7,8,178
2.128566997159623,10,4,7,8,179
2.128566997159623,10,4,7,8,180
2.122398302663136,10,4,7,8,181
2.122398302663136,10,4,7,8,182
2.122398302663136,10,4,7,8,183
2.122398302663136,10,4,7,8,184
2.122398302663136,10,4,7,8,185
2.122398302663136,10,4,7,8,186
2.122398302663136,10,4,7,8,187
2.122398302663136,10,4,7,8,188
2.1161965677084407,10,4,7,8,189
2.1161965677084407,10,4,7,8,190
2.1161965677084407,10,4,7,8,191
2.1161965677084407,10,4,7,8,192
2.1161965677084407,10,4,7,8,193
2.1161965677084407,10,4,8,1,194
2.1161965677084407,10,4,8,1,195
2.1161965677084407,10,4,8,1,196
2.1099632800367516,10,4,8,1,197
2.1099632800367516,10,4,8,1,198
2.1099632800367516,10,4,8,1,199
2.1099632800367516,10,4,8,1,200
2.1099632800367516,10,4,8,1,201
2.1099632800367516,10,4,8,1,202
2.1099632800367516,10,4,8,1,203
2.1099632800367516,10,4,8,1,204
2.103699908575212,10,4,8,1,205
2.103699908575212,10,4,8,1,206
2.103699908575212,10,4,8,1,207
2.103699908575212,10,4,8,1,208
2.103699908575212,10,4,8,1,209
2.103699908575212,10,4,8,1,210
2.103699908575212,10,4,8,1,211
2.103699908575212,10,4,8,1,212
2.103699908575212,10,4,8,1,213
2.3032197180817735,10,4,8,1,214
2.3032197180817735,10,4,8,1,215
2.3032197180817735,10,4,8,1,216
2.3032197180817735,10,4,8,1,217
2.3032197180817735,10,4,8,1,218
2.3032197180817735,10,4,8,1,219
2.3032197180817735,10,4,8,1,220
2.296280424849404,10,4,8,1,221
2.296280424849404,10,4,8,1,222
2.296280424849404,10,4,8,1,223
2.296280424849404,10,4,8,1,224
2.296280424849404,10,4,8,1,225
2.296280424849404,10,4,8,1,226
2.296280424849404,10,4,8,1,227
2.296280424849404,10,4,8,1,228
2.289312806280522,10,4,8,1,229
2.289312806280522,10,4,8,1,230
2.289312806280522,10,4,8,1,231
2.289312806280522,10,4,8,1,232
2.289312806280522,10,4,8,1,233
2.289312806280522,10,4,8,1,234
2.289312806280522,10,4,8,1,235
2.289312806280522,10,4,8,1,236
2.2823183882188154,10,4,8,1,237
2.2823183882188154,10,4,8,1,238
2.2823183882188154,10,4,8,1,239
2.2823183882188154,10,4,8,1,240
2.2823183882188154,10,4,8,1,241
2.2823183882188154,10,4,8,1,242
2.2823183882188154,10,4,8,1,243
2.2823183882188154,10,4,8,1,244
2.275298673735019,10,4,8,1,245
2.275298673735019,10,4,8,1,246
2.275298673735019,10,4,8,1,247
2.275298673735019,10,4,8,1,248
2.275298673735019,10,4,8,1,249
2.275298673735019,10,4,8,1,250
2.275298673735019,10,4,8,1,251
2.275298673735019,10,4,8,1,252
2.268255142808974,10,4,8,1,253
2.268255142808974,10,4,8,1,254
2.268255142808974,10,4,8,1,255
2.268255142808974,10,4,8,1,0
2.268255142808974,10,4,8,1,1
2.268255142808974,10,4,8,1,2
2.268255142808974,10,4,8,1,3
2.268255142808974,10,4,8,1,4
2.2611892520445815,10,4,8,1,5
2.2611892520445815,10,4,8,1,6
2.2611892520445815,10,4,8,1,7
2.2611892520445815,10,4,8,1,8
2.2611892520445815,10,4,8,1,9
2.2611892520445815,10,4,8,1,10
2.2611892520445815,10,4,8,1,11
2.2611892520445815,10,4,8,1,12
2.254102434416755,10,4,8,1,13
2.254102434416755,10,4,8,1,14
2.254102434416755,10,4,8,1,15
2.254102434416755,10,4,8,1,16
2.254102434416755,10,4,8,1,17
2.254102434416755,10,4,8,1,18
2.254102434416755,10,4,8,1,19
2.254102434416755,10,4,8,1,20
2.2469960990494524,10,4,8,1,21
2.2469960990494524,10,4,8,1,22
2.2469960990494524,10,4,8,1,23
2.2469960990494524,10,4,8,1,24
2.2469960990494524,10,4,8,1,25
2.2469960990494524,10,4,8,1,26
2.2469960990494524,10,4,8,1,27
2.2469960990494524,10,4,8,1,28
2.239871631023867,10,4,8,1,29
2.239871631023867,10,4,8,1,30
2.239871631023867,10,4,8,1,31
2.239871631023867,10,4,8,1,32
2.239871631023867,10,4,8,1,33
2.239871631023867,10,4,8,1,34
2.239871631023867,10,4,8,1,35
2.239871631023867,10,4,8,1,36
2.2327303912158167,10,4,8,1,37
2.2327303912158167,10,4,8,2,38
2.2327303912158167,10,4,8,2,39
2.2327303912158167,10,4,8,2,40
2.2327303912158167,10,4,8,2,41
2.2327303912158167,10,4,8,2,42
2.2327303912158167,10,4,8,2,43
2.2327303912158167,10,4,8,2,44
2.2255737161613904,10,4,8,2,45
2.2255737161613904,10,4,8,2,46
2.2255737161613904,10,4,8,2,47
2.2255737161613904,10,4,8,2,48
2.2255737161613904,10,4,8,2,49
2.2255737161613904,10,4,8,2,50
2.2255737161613904,10,4,8,2,51
2.2255737161613904,10,4,8,2,52
2.218402917949879,10,4,8,2,53
2.218402917949879,10,4,8,2,54
2.218402917949879,10,4,8,2,55
2.218402917949879,10,4,8,2,56
2.218402917949879,10,4,8,2,57
2.218402917949879,10,4,8,2,58
2.218402917949879,10,4,8,2,59
2.218402917949879,10,4,8,2,60
2.2112192841430365,10,4,8,2,61
2.2112192841430365,10,4,8,2,62
2.2112192841430365,10,4,8,2,63
2.2112192841430365,10,4,8,2,64
2.2112192841430365,10,4,8,2,65
2.2112192841430365,10,4,8,2,66
2.2112192841430365,10,4,8,2,67
2.2112192841430365,10,4,8,2,68
2.2040240777196884,10,4,8,2,69
2.2040240777196884,10,4,8,2,70
2.2040240777196884,10,4,8,2,71
2.2040240777196884,10,4,8,2,72
2.2040240777196884,10,4,8,2,73
2.2040240777196884,10,4,8,2,74
2.2040240777196884,10,4,8,2,75
2.2040240777196884,10,4,8,2,76
2.196818537044726,10,4,8,2,77
2.196818537044726,10,4,8,2,78
2.196818537044726,10,4,8,2,79
2.196818537044726,10,4,8,2,80
2.196818537044726,10,4,8,2,81
2.196818537044726,10,4,8,2,82
2.196818537044726,10,4,8,2,83
2.196818537044726,10,4,8,2,84
2.196818537044726,10,4,8,2,85
2.189603875861525,10,4,8,2,86
2.189603875861525,10,4,8,2,87
2.189603875861525,10,4,8,2,88
2.189603875861525,10,4,8,2,89
2.189603875861525,10,4,8,2,90
2.189603875861525,10,4,8,2,91
2.189603875861525,10,4,8,2,92
2.189603875861525,10,4,8,2,93
2.182381283306817,10,4,8,2,94
2.182381283306817,10,4,8,2,95
2.182381283306817,10,4,8,2,96
2.182381283306817,10,4,8,2,97
2.182381283306817,10,4,8,2,98
2.182381283306817,10,4,8,2,99
2.182381283306817,10,4,8,2,100
2.182381283306817,10,4,8,2,101
2.1751519239470674,10,4,8,2,102
2.1751519239470674,10,4,8,2,103
2.1751519239470674,10,4,8,2,104
2.1751519239470674,10,4,8,2,105
2.1751519239470674,10,4,8,2,106
2.1751519239470674,10,4,8,2,107
2.1751519239470674,10,4,8,2,108
2.1751519239470674,10,4,8,2,109
2.1679169378354017,10,4,8,2,110
2.1679169378354017,10,4,8,2,111
2.1679169378354017,10,4,8,2,112
2.1679169378354017,10,4,8,2,113
2.1679169378354017,10,4,8,2,114
2.1679169378354017,10,4,8,2,115
2.1679169378354017,10,4,8,2,116
2.1679169378354017,10,4,8,2,117
2.160677440588168,10,4,8,2,118
2.160677440588168,10,4,8,2,119
2.160677440588168,10,4,8,2,120
2.160677440588168,10,4,8,2,121
2.160677440588168,10,4,8,2,122
2.160677440588168,10,4,8,2,123
2.160677440588168,10,4,8,2,124
2.160677440588168,10,4,8,2,125
2.153434523480174,10,4,8,2,126
2.153434523480174,10,4,8,2,127
2.153434523480174,10,4,8,2,128
2.153434523480174,10,4,8,2,129
2.153434523480174,10,4,8,2,130
2.153434523480174,10,4,8,2,131
2.153434523480174,10,4,8,2,132
2.153434523480174,10,4,8,2,133
2.1461892535577265,10,4,8,2,134
2.1461892535577265,10,4,8,2,135
2.1461892535577265,10,4,8,2,136
2.1461892535577265,10,4,8,2,137
2.1461892535577265,10,4,8,3,138
2.1461892535577265,10,4,8,3,139
2.1461892535577265,10,4,8,3,140
2.1461892535577265,10,4,8,3,141
2.1389426737685393,10,4,8,3,142
2.1389426737685393,10,4,8,3,143
2.1389426737685393,10,4,8,3,144
2.1389426737685393,10,4,8,3,145
2.1389426737685393,10,4,8,3,146
2.1389426737685393,10,4,8,3,147
2.1389426737685393,10,4,8,3,148
2.1389426737685393,10,4,8,3,149
2.1316958031076605,10,4,8,3,150
2.1316958031076605,10,4,8,3,151
2.1316958031076605,10,4,8,3,152
2.1316958031076605,10,4,8,3,153
2.1316958031076605,10,4,8,3,154
2.1316958031076605,10,4,8,3,155
2.354064206645246,10,4,8,3,156
2.354064206645246,10,4,8,3,157
2.346062154586062,10,4,8,3,158
2.346062154586062,10,4,8,3,159
2.346062154586062,10,4,8,3,160
2.346062154586062,10,4,8,3,161
2.346062154586062,10,4,8,3,162
2.346062154586062,10,4,8,3,163
2.346062154586062,10,4,8,3,164
2.346062154586062,10,4,8,3,165
2.3380619532697198,10,4,8,3,166
2.3380619532697198,10,4,8,3,167
2.3380619532697198,10,4,8,3,168
2.3380619532697198,10,4,8,3,169
2.3380619532697198,10,4,8,3,170
2.3380619532697198,10,4,8,3,171
2.3380619532697198,10,4,8,3,172
2.3380619532697198,10,4,8,3,173
2.3300646497634734,10,4,8,3,174
2.3300646497634734,10,4,8,3,175
2.3300646497634734,10,4,8,3,176
2.3300646497634734,10,4,8,3,177
2.3300646497634734,10,4,8,3,178
2.3300646497634734,10,4,8,3,179
2.3300646497634734,10,4,8,3,180
2.3300646497634734,10,4,8,3,181
2.322071265485763,10,4,8,3,182
2.322071265485763,10,4,8,3,183
2.322071265485763,10,4,8,3,184
2.322071265485763,10,4,8,3,185
2.322071265485763,10,4,8,3,186
2.322071265485763,10,4,8,3,187
2.322071265485763,10,4,8,3,188
2.322071265485763,10,4,8,3,189
2.314082796441793,10,4,8,3,190
2.314082796441793,10,4,8,3,191
2.314082796441793,10,4,8,3,192
2.314082796441793,10,4,8,3,193
2.314082796441793,10,4,8,3,194
2.314082796441793,10,4,8,3,195
2.314082796441793,10,4,8,3,196
2.314082796441793,10,4,8,3,197
2.306100213471348,10,4,8,3,198
2.306100213471348,10,4,8,3,199
2.306100213471348,10,4,8,3,200
2.306100213471348,10,4,8,3,201
2.306100213471348,10,4,8,3,202
2.306100213471348,10,4,8,3,203
2.306100213471348,10,4,8,3,204
2.306100213471348,10,4,8,3,205
2.298124462508039,10,4,8,3,206
2.298124462508039,10,4,8,3,207
2.298124462508039,10,4,8,3,208
2.298124462508039,10,4,8,3,209
2.298124462508039,10,4,8,3,210
2.298124462508039,10,4,8,3,211
2.298124462508039,10,4,8,3,212
2.298124462508039,10,4,8,3,213
2.2901564648491624,10,4,8,3,214
2.2901564648491624,10,4,8,3,215
2.2901564648491624,10,4,8,3,216
2.2901564648491624,10,4,8,3,217
2.2901564648491624,10,4,8,3,218
2.2901564648491624,10,4,8,3,219
2.2901564648491624,10,4,8,3,220
2.2901564648491624,10,4,8,3,221
2.28219711743539,10,4,8,3,222
2.28219711743539,10,4,8,3,223
2.28219711743539,10,4,8,3,224
2.28219711743539,10,4,8,3,225
2.28219711743539,10,4,8,3,226
2.28219711743539,10,4,8,3,227
2.28219711743539,10,4,8,3,228
2.28219711743539,10,4,8,3,229
2.2742472931395437,10,4,8,3,230
2.2742472931395437,10,4,8,3,231
2.2742472931395437,10,4,8,3,232
2.2742472931395437,10,4,8,3,233
2.2742472931395437,10,4,8,3,234
2.2742472931395437,10,4,8,3,235
2.2742472931395437,10,4,8,3,236
2.2742472931395437,10,4,8,3,237
2.266307841063717,10,4,8,5,238
2.266307841063717,10,4,8,5,239
2.266307841063717,10,4,8,5,240
2.266307841063717,10,4,8,5,241
2.266307841063717,10,4,8,5,242
2.266307841063717,10,4,8,5,243
2.266307841063717,10,4,8,5,244
2.266307841063717,10,4,8,5,245
2.258379586844031,10,4,8,5,246
2.258379586844031,10,4,8,5,247
2.258379586844031,10,4,8,5,248
2.258379586844031,10,4,8,5,249
2.258379586844031,10,4,8,5,250
2.258379586844031,10,4,8,5,251
2.258379586844031,10,4,8,5,252
2.258379586844031,10,4,8,5,253
2.2504633329623482,10,4,8,5,254
2.2504633329623482,10,4,8,5,255
2.2504633329623482,10,4,8,5,0
2.2504633329623482,10,4,8,5,1
2.2504633329623482,10,4,8,5,2
2.2504633329623482,10,4,8,5,3
2.2504633329623482,10,4,8,5,4
2.2504633329623482,10,4,8,5,5
2.242559859064289,10,4,8,5,6
2.242559859064289,10,4,8,5,7
2.242559859064289,10,4,8,5,8
2.242559859064289,10,4,8,5,9
2.242559859064289,10,4,8,5,10
2.242559859064289,10,4,8,5,11
2.242559859064289,10,4,8,5,12
2.242559859064289,10,4,8,5,13
2.2346699222828943,10,4,8,5,14
2.2346699222828943,10,4,8,5,15
2.2346699222828943,10,4,8,5,16
2.2346699222828943,10,4,8,5,17
2.2346699222828943,10,4,8,5,18
2.2346699222828943,10,4,8,5,19
2.2346699222828943,10,4,8,5,20
2.2346699222828943,10,4,8,5,21
2.226794257567352,10,4,8,5,22
2.226794257567352,10,4,8,5,23
2.226794257567352,10,4,8,5,24
2.226794257567352,10,4,8,5,25
2.226794257567352,10,4,8,5,26
2.226794257567352,10,4,8,5,27
2.226794257567352,10,4,8,5,28
2.226794257567352,10,4,8,5,29
2.2189335780161783,10,4,8,5,30
2.2189335780161783,10,4,8,5,31
2.2189335780161783,10,4,8,5,32
2.2189335780161783,10,4,8,5,33
2.2189335780161783,10,4,8,5,34
2.2189335780161783,10,4,8,5,35
2.2189335780161783,10,4,8,5,36
2.2189335780161783,10,4,8,5,37
2.211088575214299,10,4,8,5,38
2.211088575214299,10,4,8,5,39
2.211088575214299,10,4,8,5,40
2.211088575214299,10,4,8,5,41
2.211088575214299,10,4,8,5,42
2.211088575214299,10,4,8,5,43
2.211088575214299,10,4,8,5,44
2.211088575214299,10,4,8,5,45
2.203259919573489,10,4,8,5,46
2.203259919573489,10,4,8,5,47
2.203259919573489,10,4,8,5,48
2.203259919573489,10,4,8,5,49
2.203259919573489,10,4,8,5,50
2.203259919573489,10,4,8,5,51
2.203259919573489,10,4,8,5,52
2.203259919573489,10,4,8,5,53
2.195448260675652,10,4,8,5,54
2.195448260675652,10,4,8,5,55
2.195448260675652,10,4,8,5,56
2.195448260675652,10,4,8,5,57
2.195448260675652,10,4,8,5,58
2.195448260675652,10,4,8,5,59
2.195448260675652,10,4,8,5,60
2.195448260675652,10,4,8,5,61
2.187654227618445,10,4,8,5,62
2.187654227618445,10,4,8,5,63
2.187654227618445,10,4,8,5,64
2.187654227618445,10,4,8,5,65
2.187654227618445,10,4,8,5,66
2.187654227618445,10,4,8,5,67
2.187654227618445,10,4,8,5,68
2.187654227618445,10,4,8,5,69
2.1798784293627778,10,4,8,5,70
2.1798784293627778,10,4,8,5,71
2.1798784293627778,10,4,8,5,72
2.1798784293627778,10,4,8,5,73
2.1798784293627778,10,4,8,5,74
2.1798784293627778,10,4,8,5,75
2.1798784293627778,10,4,8,5,76
2.1798784293627778,10,4,8,5,77
2.1721214550817294,10,4,8,5,78
2.1721214550817294,10,4,8,5,79
2.1721214550817294,10,4,8,5,80
2.1721214550817294,10,4,8,5,81
2.1721214550817294,10,4,8,6,82
2.1721214550817294,10,4,8,6,83
2.1721214550817294,10,4,8,6,84
2.1721214550817294,10,4,8,6,85
2.1643838745104644,10,4,8,6,86
2.1643838745104644,10,4,8,6,87
2.1643838745104644,10,4,8,6,88
2.1643838745104644,10,4,8,6,89
2.1643838745104644,10,4,8,6,90
2.1643838745104644,10,4,8,6,91
2.1643838745104644,10,4,8,6,92
2.1643838745104644,10,4,8,6,93
2.156666238296724,10,4,8,6,94
2.156666238296724,10,4,8,6,95
2.156666238296724,10,4,8,6,96
2.156666238296724,10,4,8,6,97
2.3821157195566522,10,4,8,6,98
2.3821157195566522,10,4,8,6,99
2.3821157195566522,10,4,8,6,100
2.3821157195566522,10,4,8,6,101
2.373613928516472,10,4,8,6,102
2.373613928516472,10,4,8,6,103
2.373613928516472,10,4,8,6,104
2.373613928516472,10,4,8,6,105
2.373613928516472,10,4,8,6,106
2.373613928516472,10,4,8,6,107
2.373613928516472,10,4,8,6,108
2.373613928516472,10,4,8,6,109
2.365135321460802,10,4,8,6,110
2.365135321460802,10,4,8,6,111
2.365135321460802,10,4,8,6,112
2.365135321460802,10,4,8,6,113
2.365135321460802,10,4,8,6,114
2.365135321460802,10,4,8,6,115
2.365135321460802,10,4,8,6,116
2.365135321460802,10,4,8,6,117
2.3566804456746757,10,4,8,6,118
2.3566804456746757,10,4,8,6,119
2.3566804456746757,10,4,8,6,120
2.3566804456746757,10,4,8,6,121
2.3566804456746757,10,4,8,6,122
2.3566804456746757,10,4,8,6,123
2.3566804456746757,10,4,8,6,124
2.3566804456746757,10,4,8,6,125
2.3482498289071225,10,4,8,6,126
2.3482498289071225,10,4,8,6,127
2.3482498289071225,10,4,8,6,128
2.3482498289071225,10,4,8,6,129
2.3482498289071225,10,4,8,6,130
2.3482498289071225,10,4,8,6,131
2.3482498289071225,10,4,8,6,132
2.3482498289071225,10,4,8,6,133
2.3398439797555275,10,4,8,6,134
2.3398439797555275,10,4,8,6,135
2.3398439797555275,10,4,8,6,136
2.3398439797555275,10,4,8,6,137
2.3398439797555275,10,4,8,6,138
2.3398439797555275,10,4,8,6,139
2.3398439797555275,10,4,8,6,140
2.3398439797555275,10,4,8,6,141
2.331463388048385,10,4,8,6,142
2.331463388048385,10,4,8,6,143
2.331463388048385,10,4,8,6,144
2.331463388048385,10,4,8,6,145
2.331463388048385,10,4,8,6,146
2.331463388048385,10,4,8,6,147
2.331463388048385,10,4,8,6,148
2.331463388048385,10,4,8,6,149
2.323108525226134,10,4,8,6,150
2.323108525226134,10,4,8,6,151
2.323108525226134,10,4,8,6,152
2.323108525226134,10,4,8,6,153
2.323108525226134,10,4,8,6,154
2.323108525226134,10,4,8,6,155
2.323108525226134,10,4,8,6,156
2.323108525226134,10,4,8,6,157
2.3147798447198005,10,4,8,6,158
2.3147798447198005,10,4,8,6,159
2.3147798447198005,10,4,8,6,160
2.3147798447198005,10,4,8,6,161
2.3147798447198005,10,4,8,6,162
2.3147798447198005,10,4,8,6,163
2.3147798447198005,10,4,8,6,164
2.3147798447198005,10,4,8,6,165
2.306477782327161,10,4,8,6,166
2.306477782327161,10,4,8,6,167
2.306477782327161,10,4,8,6,168
2.306477782327161,10,4,8,6,169
2.306477782327161,10,4,8,6,170
2.306477782327161,10,4,8,6,171
2.306477782327161,10,4,8,6,172
2.306477782327161,10,4,8,6,173
2.298202756586197,10,4,8,6,174
2.298202756586197,10,4,8,6,175
2.298202756586197,10,4,8,6,176
2.298202756586197,10,4,8,6,177
2.298202756586197,10,4,8,6,178
2.298202756586197,10,4,8,6,179
2.298202756586197,10,4,8,6,180
2.298202756586197,10,4,8,6,181
2.289955169145585,10,4,8,7,182
2.289955169145585,10,4,8,7,183
2.289955169145585,10,4,8,7,184
2.289955169145585,10,4,8,7,185
2.289955169145585,10,4,8,7,186
2.289955169145585,10,4,8,7,187
2.289955169145585,10,4,8,7,188
2.289955169145585,10,4,8,7,189
2.2817354051320176,10,4,8,7,190
2.2817354051320176,10,4,8,7,191
2.2817354051320176,10,4,8,7,192
2.2817354051320176,10,4,8,7,193
2.2817354051320176,10,4,8,7,194
2.2817354051320176,10,4,8,7,195
2.2817354051320176,10,4,8,7,196
2.2817354051320176,10,4,8,7,197
2.2735438335141493,10,4,8,7,198
2.2735438335141493,10,4,8,7,199
2.2735438335141493,10,4,8,7,200
2.2735438335141493,10,4,8,7,201
2.2735438335141493,10,4,8,7,202
2.2735438335141493,10,4,8,7,203
2.2735438335141493,10,4,8,7,204
2.2735438335141493,10,4,8,7,205
2.265380807462971,10,4,8,7,206
2.265380807462971,10,4,8,7,207
2.265380807462971,10,4,8,7,208
2.265380807462971,10,4,8,7,209
2.265380807462971,10,4,8,7,210
2.265380807462971,10,4,8,7,211
2.265380807462971,10,4,8,7,212
2.265380807462971,10,4,8,7,213
2.257246664708458,10,4,8,7,214
2.257246664708458,10,4,8,7,215
2.257246664708458,10,4,8,7,216
2.257246664708458,10,4,8,7,217
2.257246664708458,10,4,8,7,218
2.257246664708458,10,4,8,7,219
2.257246664708458,10,4,8,7,220
2.257246664708458,10,4,8,7,221
2.249141727892308,10,4,8,7,222
2.249141727892308,10,4,8,7,223
2.249141727892308,10,4,8,7,224
2.249141727892308,10,4,8,7,225
2.249141727892308,10,4,8,7,226
2.249141727892308,10,4,8,7,227
2.249141727892308,10,4,8,7,228
2.249141727892308,10,4,8,7,229
2.241066304916647,10,4,8,7,230
2.241066304916647,10,4,8,7,231
2.241066304916647,10,4,8,7,232
2.241066304916647,10,4,8,7,233
2.241066304916647,10,4,8,7,234
2.241066304916647,10,4,8,7,235
2.241066304916647,10,4,8,7,236
2.241066304916647,10,4,8,7,237
2.2330206892885434,10,4,8,7,238
2.2330206892885434,10,4,8,7,239
2.2330206892885434,10,4,8,7,240
2.2330206892885434,10,4,8,7,241
2.2330206892885434,10,4,8,7,242
2.2330206892885434,10,4,8,7,243
2.2330206892885434,10,4,8,7,244
2.2330206892885434,10,4,8,7,245
2.225005160460236,10,4,8,7,246
2.225005160460236,10,4,8,7,247
2.225005160460236,10,4,8,7,248
2.225005160460236,10,4,8,7,249
2.225005160460236,10,4,8,7,250
2.225005160460236,10,4,8,7,251
2.225005160460236,10,4,8,7,252
2.225005160460236,10,4,8,7,253
2.217019984164945,10,4,8,7,254
2.217019984164945,10,4,8,7,255
2.217019984164945,10,4,8,7,0
2.217019984164945,10,4,8,7,1
2.217019984164945,10,4,8,7,2
2.217019984164945,10,4,8,7,3
2.217019984164945,10,4,8,7,4
2.217019984164945,10,4,8,7,5
2.209065412748178,10,4,8,7,6
2.209065412748178,10,4,8,7,7
2.209065412748178,10,4,8,7,8
2.209065412748178,10,4,8,7,9
2.209065412748178,10,4,8,7,10
2.209065412748178,10,4,8,7,11
2.209065412748178,10,4,8,7,12
2.209065412748178,10,4,8,7,13
2.201141685494435,10,4,8,7,14
2.201141685494435,10,4,8,7,15
2.201141685494435,10,4,8,7,16
2.201141685494435,10,4,8,7,17
2.201141685494435,10,4,8,7,18
2.201141685494435,10,4,8,7,19
2.201141685494435,10,4,8,7,20
2.201141685494435,10,4,8,7,21
2.193249028949245,10,4,8,7,22
2.193249028949245,10,4,8,7,23
2.193249028949245,10,4,8,7,24
2.193249028949245,10,4,8,7,25
2.193249028949245,10,4,8,8,26
2.193249028949245,10,4,8,8,27
2.193249028949245,10,4,8,8,28
2.193249028949245,10,4,8,8,29
2.185387657236458,10,4,8,8,30
2.185387657236458,10,4,8,8,31
2.185387657236458,10,4,8,8,32
2.185387657236458,10,4,8,8,33
2.185387657236458,10,4,8,8,34
2.185387657236458,10,4,8,8,35
2.185387657236458,10,4,8,8,36
2.185387657236458,10,4,8,8,37
2.185387657236458,10,4,8,8,38
2.3983945485757205,10,4,8,8,39
2.3983945485757205,10,4,8,8,40
2.3983945485757205,10,4,8,8,41
2.3983945485757205,10,4,8,8,42
2.3983945485757205,10,4,8,8,43
2.3983945485757205,10,4,8,8,44
2.3983945485757205,10,4,8,8,45
2.3898054864039495,10,4,8,8,46
2.3898054864039495,10,4,8,8,47
2.3898054864039495,10,4,8,8,48
2.3898054864039495,10,4,8,8,49
2.3898054864039495,10,4,8,8,50
2.3898054864039495,10,4,8,8,51
2.3898054864039495,10,4,8,8,52
2.3898054864039495,10,4,8,8,53
2.381251510656417,10,4,8,8,54
2.381251510656417,10,4,8,8,55
2.381251510656417,10,4,8,8,56
2.381251510656417,10,4,8,8,57
2.381251510656417,10,4,8,8,58
2.381251510656417,10,4,8,8,59
2.381251510656417,10,4,8,8,60
2.381251510656417,10,4,8,8,61
2.372732805834762,10,4,8,8,62
2.372732805834762,10,4,8,8,63
2.372732805834762,10,4,8,8,64
2.372732805834762,10,4,8,8,65
2.372732805834762,10,4,8,8,66
2.372732805834762,10,4,8,8,67
2.372732805834762,10,4,8,8,68
2.372732805834762,10,4,8,8,69
2.3642495444262397,10,4,8,8,70
2.3642495444262397,10,4,8,8,71
2.3642495444262397,10,4,8,8,72
2.3642495444262397,10,4,8,8,73
2.3642495444262397,10,4,8,8,74
2.3642495444262397,10,4,8,8,75
2.3642495444262397,10,4,8,8,76
2.3642495444262397,10,4,8,8,77
2.3558018872207978,10,4,8,8,78
2.3558018872207978,10,4,8,8,79
2.3558018872207978,10,4,8,8,80
2.3558018872207978,10,4,8,8,81
2.3558018872207978,10,4,8,8,82
2.3558018872207978,10,4,8,8,83
2.3558018872207978,10,4,8,8,84
2.3558018872207978,10,4,8,8,85
2.347389983622665,10,4,8,8,86
2.347389983622665,10,4,8,8,87
2.347389983622665,10,4,8,8,88
2.347389983622665,10,4,8,8,89
2.347389983622665,10,4,8,8,90
2.347389983622665,10,4,8,8,91
2.347389983622665,10,4,8,8,92
2.347389983622665,10,4,8,8,93
2.339013971956431,10,4,8,8,94
2.339013971956431,10,4,8,8,95
2.339013971956431,10,4,8,8,96
2.339013971956431,10,4,8,8,97
2.339013971956431,10,4,8,8,98
2.339013971956431,10,4,8,8,99
2.339013971956431,10,4,8,8,100
2.339013971956431,10,4,8,8,101
2.3306739797676306,10,4,8,8,102
2.3306739797676306,10,4,8,8,103
2.3306739797676306,10,4,8,8,104
2.3306739797676306,10,4,8,8,105
2.3306739797676306,10,4,8,8,106
2.3306739797676306,10,4,8,8,107
2.3306739797676306,10,4,8,8,108
2.3306739797676306,10,4,8,8,109
2.322370124117828,10,4,8,8,110
2.322370124117828,10,4,8,8,111
2.322370124117828,10,4,8,8,112
2.322370124117828,10,4,8,8,113
2.322370124117828,10,4,8,8,114
2.322370124117828,10,4,8,8,115
2.322370124117828,10,4,8,8,116
2.322370124117828,10,4,8,8,117
2.314102511874211,10,4,8,8,118
2.314102511874211,10,4,8,8,119
2.314102511874211,10,4,8,8,120
2.314102511874211,10,4,8,8,121
2.314102511874211,10,4,8,8,122
2.314102511874211,10,4,8,8,123
2.314102511874211,10,4,8,8,124
2.314102511874211,10,4,8,8,125
2.305871239993725,10,4,8,8,126
2.305871239993725,10,4,8,8,127
2.305871239993725,10,4,8,8,128
2.305871239993725,10,4,8,8,129
2.305871239993725,10,4,8,8,130
2.305871239993725,10,4,8,8,131
2.305871239993725,10,4,8,8,132
2.305871239993725,10,4,8,8,133
2.297676395801745,10,4,8,8,134
2.297676395801745,10,4,8,8,135
2.297676395801745,10,4,8,8,136
2.297676395801745,10,4,8,8,137
2.297676395801745,10,4,8,8,138
2.297676395801745,10,4,8,8,139
2.297676395801745,10,4,8,8,140
2.297676395801745,10,4,8,8,141
2.28951805726534,10,4,8,8,142
2.28951805726534,10,4,8,8,143
2.28951805726534,10,4,8,8,144
2.28951805726534,10,4,8,8,145
2.28951805726534,10,4,8,8,146
2.28951805726534,10,4,8,8,147
2.28951805726534,10,4,8,8,148
2.28951805726534,10,4,8,8,149
2.281396293261134,10,4,8,8,150
2.281396293261134,10,4,8,8,151
2.281396293261134,10,4,8,8,152
2.281396293261134,10,4,8,8,153
2.281396293261134,10,4,8,8,154
2.281396293261134,10,4,8,8,155
2.281396293261134,10,4,8,8,156
2.281396293261134,10,4,8,8,157
2.2733111638378194,10,4,8,8,158
2.2733111638378194,10,4,8,8,159
2.2733111638378194,10,4,8,8,160
2.2733111638378194,10,4,8,8,161
2.2733111638378194,10,4,8,8,162
2.2733111638378194,10,4,8,8,163
2.2733111638378194,10,4,8,8,164
2.2733111638378194,10,4,8,8,165
2.265262720473344,10,4,8,8,166
2.265262720473344,10,4,8,8,167
2.265262720473344,10,4,8,8,168
2.265262720473344,10,4,8,8,169
2.265262720473344,10,4,8,8,170
2.265262720473344,10,4,8,8,171
2.265262720473344,10,4,8,8,172
2.265262720473344,10,4,8,8,173
2.2572510063268325,10,4,8,8,174
2.2572510063268325,10,4,8,8,175
2.2572510063268325,10,4,8,8,176
2.2572510063268325,10,4,8,8,177
2.2572510063268325,10,4,8,8,178
2.2572510063268325,10,4,8,8,179
2.2572510063268325,10,4,8,8,180
2.2572510063268325,10,4,8,8,181
2.2492760564852654,10,4,8,8,182
2.2492760564852654,10,4,8,8,183
2.2492760564852654,10,4,8,8,184
2.2492760564852654,10,4,8,8,185
2.2492760564852654,10,4,8,8,186
2.2492760564852654,10,4,8,8,187
2.2492760564852654,10,4,8,8,188
2.2492760564852654,10,4,8,8,189
2.2413378982049896,10,4,8,8,190
2.2413378982049896,10,4,8,8,191
2.2413378982049896,10,4,8,8,192
2.2413378982049896,10,4,8,8,193
2.2413378982049896,10,4,8,8,194
2.2413378982049896,10,4,8,8,195
2.2413378982049896,10,4,8,8,196
2.2413378982049896,10,4,8,8,197
2.2334365511480865,10,4,8,8,198
2.2334365511480865,10,4,8,8,199
2.2334365511480865,10,4,8,8,200
2.2334365511480865,10,4,8,8,201
2.2334365511480865,10,4,8,8,202
2.2334365511480865,10,4,8,8,203
2.2334365511480865,10,4,8,8,204
2.2334365511480865,10,4,8,8,205
2.225572027613672,10,4,8,8,206
2.225572027613672,10,4,8,8,207
2.225572027613672,10,4,8,8,208
2.225572027613672,10,4,8,8,209
2.225572027613672,10,4,8,8,210
2.225572027613672,10,4,8,8,211
2.225572027613672,10,4,8,8,212
2.225572027613672,10,4,8,8,213
2.2177443327641715,10,4,8,8,214
2.2177443327641715,10,4,8,8,215
2.2177443327641715,10,4,8,8,216
2.2177443327641715,10,4,8,8,217
2.2177443327641715,10,4,8,8,218
2.2177443327641715,10,4,8,8,219
2.2177443327641715,10,4,8,8,220
2.2177443327641715,10,4,8,8,221
2.2099534648466355,10,4,8,8,222
2.2099534648466355,10,4,8,8,223
2.2099534648466355,10,4,8,8,224
2.2099534648466355,10,4,8,8,225
2.2099534648466355,10,5,6,1,226
2.2099534648466355,10,5,6,1,227
2.2099534648466355,10,5,6,1,228
2.2099534648466355,10,5,6,1,229
2.2021994154091553,10,5,6,1,230
2.2021994154091553,10,5,6,1,231
2.2021994154091553,10,5,6,1,232
2.2021994154091553,10,5,6,1,233
2.2021994154091553,10,5,6,1,234
2.2021994154091553,10,5,6,1,235
2.2021994154091553,10,5,6,1,236
2.40664038374967,10,5,6,1,237
2.40664038374967,10,5,6,1,238
2.40664038374967,10,5,6,1,239
2.40664038374967,10,5,6,1,240
2.40664038374967,10,5,6,1,241
2.40664038374967,10,5,6,1,242
2.40664038374967,10,5,6,1,243
2.40664038374967,10,5,6,1,244
2.40664038374967,10,5,6,1,245
2.3982173880815596,10,5,6,1,246
2.3982173880815596,10,5,6,1,247
2.3982173880815596,10,5,6,1,248
2.3982173880815596,10,5,6,1,249
2.3982173880815596,10,5,6,1,250
2.3982173880815596,10,5,6,1,251
2.3982173880815596,10,5,6,1,252
2.3982173880815596,10,5,6,1,253
2.389834700839125,10,5,6,1,254
2.389834700839125,10,5,6,1,255
2.389834700839125,10,5,6,1,0
2.389834700839125,10,5,6,1,1
2.389834700839125,10,5,6,1,2
2.389834700839125,10,5,6,1,3
2.389834700839125,10,5,6,1,4
2.389834700839125,10,5,6,1,5
2.3814922856352023,10,5,6,1,6
2.3814922856352023,10,5,6,1,7
2.3814922856352023,10,5,6,1,8
2.3814922856352023,10,5,6,1,9
2.3814922856352023,10,5,6,1,10
2.3814922856352023,10,5,6,1,11
2.3814922856352023,10,5,6,1,12
2.3814922856352023,10,5,6,1,13
2.373190099844511,10,5,6,1,14
2.373190099844511,10,5,6,1,15
2.373190099844511,10,5,6,1,16
2.373190099844511,10,5,6,1,17
2.373190099844511,10,5,6,1,18
2.373190099844511,10,5,6,1,19
2.373190099844511,10,5,6,1,20
2.373190099844511,10,5,6,1,21
2.364928094810224,10,5,6,1,22
2.364928094810224,10,5,6,1,23
2.364928094810224,10,5,6,1,24
2.364928094810224,10,5,6,1,25
2.364928094810224,10,5,6,1,26
2.364928094810224,10,5,6,1,27
2.364928094810224,10,5,6,1,28
2.364928094810224,10,5,6,1,29
2.3567062160456667,10,5,6,1,30
2.3567062160456667,10,5,6,1,31
2.3567062160456667,10,5,6,1,32
2.3567062160456667,10,5,6,1,33
2.3567062160456667,10,5,6,1,34
2.3567062160456667,10,5,6,1,35
2.3567062160456667,10,5,6,1,36
2.3567062160456667,10,5,6,1,37
2.348524403431219,10,5,6,1,38
2.348524403431219,10,5,6,1,39
2.348524403431219,10,5,6,1,40
2.348524403431219,10,5,6,1,41
2.348524403431219,10,5,6,1,42
2.348524403431219,10,5,6,1,43
2.348524403431219,10,5,6,1,44
2.348524403431219,10,5,6,1,45
2.340382591406508,10,5,6,1,46
2.340382591406508,10,5,6,1,47
2.340382591406508,10,5,6,1,48
2.340382591406508,10,5,6,1,49
2.340382591406508,10,5,6,1,50
2.340382591406508,10,5,6,1,51
2.340382591406508,10,5,6,1,52
2.340382591406508,10,5,6,1,53
2.3322807091579607,10,5,6,1,54
2.3322807091579607,10,5,6,1,55
2.3322807091579607,10,5,6,1,56
2.3322807091579607,10,5,6,1,57
2.3322807091579607,10,5,6,1,58
2.3322807091579607,10,5,6,1,59
2.3322807091579607,10,5,6,1,60
2.3322807091579607,10,5,6,1,61
2.32421868080179,10,5,6,1,62
2.32421868080179,10,5,6,1,63
2.32421868080179,10,5,6,1,64
2.32421868080179,10,5,6,1,65
2.32421868080179,10,5,6,1,66
2.32421868080179,10,5,6,1,67
2.32421868080179,10,5,6,1,68
2.32421868080179,10,5,6,1,69
2.3161964255625116,10,5,6,2,70
2.3161964255625116,10,5,6,2,71
2.3161964255625116,10,5,6,2,72
2.3161964255625116,10,5,6,2,73
2.3161964255625116,10,5,6,2,74
2.3161964255625116,10,5,6,2,75
2.3161964255625116,10,5,6,2,76
2.3161964255625116,10,5,6,2,77
2.308213857947042,10,5,6,2,78
2.308213857947042,10,5,6,2,79
2.308213857947042,10,5,6,2,80
2.308213857947042,10,5,6,2,81
2.308213857947042,10,5,6,2,82
2.308213857947042,10,5,6,2,83
2.308213857947042,10,5,6,2,84
2.308213857947042,10,5,6,2,85
2.300270887914483,10,5,6,2,86
2.300270887914483,10,5,6,2,87
2.300270887914483,10,5,6,2,88
2.300270887914483,10,5,6,2,89
2.300270887914483,10,5,6,2,90
2.300270887914483,10,5,6,2,91
2.300270887914483,10,5,6,2,92
2.300270887914483,10,5,6,2,93
2.2923674210416496,10,5,6,2,94
2.2923674210416496,10,5,6,2,95
2.2923674210416496,10,5,6,2,96
2.2923674210416496,10,5,6,2,97
2.2923674210416496,10,5,6,2,98
2.2923674210416496,10,5,6,2,99
2.2923674210416496,10,5,6,2,100
2.2923674210416496,10,5,6,2,101
2.284503358684432,10,5,6,2,102
2.284503358684432,10,5,6,2,103
2.284503358684432,10,5,6,2,104
2.284503358684432,10,5,6,2,105
2.284503358684432,10,5,6,2,106
2.284503358684432,10,5,6,2,107
2.284503358684432,10,5,6,2,108
2.284503358684432,10,5,6,2,109
2.2766785981350672,10,5,6,2,110
2.2766785981350672,10,5,6,2,111
2.2766785981350672,10,5,6,2,112
2.2766785981350672,10,5,6,2,113
2.2766785981350672,10,5,6,2,114
2.2766785981350672,10,5,6,2,115
2.2766785981350672,10,5,6,2,116
2.2766785981350672,10,5,6,2,117
2.268893032775395,10,5,6,2,118
2.268893032775395,10,5,6,2,119
2.268893032775395,10,5,6,2,120
2.268893032775395,10,5,6,2,121
2.268893032775395,10,5,6,2,122
2.268893032775395,10,5,6,2,123
2.268893032775395,10,5,6,2,124
2.268893032775395,10,5,6,2,125
2.2611465522261702,10,5,6,2,126
2.2611465522261702,10,5,6,2,127
2.2611465522261702,10,5,6,2,128
2.2611465522261702,10,5,6,2,129
2.2611465522261702,10,5,6,2,130
2.2611465522261702,10,5,6,2,131
2.2611465522261702,10,5,6,2,132
2.2611465522261702,10,5,6,2,133
2.2534390424925252,10,5,6,2,134
2.2534390424925252,10,5,6,2,135
2.2534390424925252,10,5,6,2,136
2.2534390424925252,10,5,6,2,137
2.2534390424925252,10,5,6,2,138
2.2534390424925252,10,5,6,2,139
2.2534390424925252,10,5,6,2,140
2.2534390424925252,10,5,6,2,141
2.245770386105634,10,5,6,2,142
2.245770386105634,10,5,6,2,143
2.245770386105634,10,5,6,2,144
2.245770386105634,10,5,6,2,145
2.245770386105634,10,5,6,2,146
2.245770386105634,10,5,6,2,147
2.245770386105634,10,5,6,2,148
2.245770386105634,10,5,6,2,149
2.2381404622606826,10,5,6,2,150
2.2381404622606826,10,5,6,2,151
2.2381404622606826,10,5,6,2,152
2.2381404622606826,10,5,6,2,153
2.2381404622606826,10,5,6,2,154
2.2381404622606826,10,5,6,2,155
2.2381404622606826,10,5,6,2,156
2.2381404622606826,10,5,6,2,157
2.2305491469511907,10,5,6,2,158
2.2305491469511907,10,5,6,2,159
2.2305491469511907,10,5,6,2,160
2.2305491469511907,10,5,6,2,161
2.2305491469511907,10,5,6,2,162
2.2305491469511907,10,5,6,2,163
2.2305491469511907,10,5,6,2,164
2.2305491469511907,10,5,6,2,165
2.2229963130997814,10,5,6,2,166
2.2229963130997814,10,5,6,2,167
2.2229963130997814,10,5,6,2,168
2.2229963130997814,10,5,6,2,169
2.2229963130997814,10,5,6,3,170
2.2229963130997814,10,5,6,3,171
2.2229963130997814,10,5,6,3,172
2.2229963130997814,10,5,6,3,173
2.215481830685459,10,5,6,3,174
2.215481830685459,10,5,6,3,175
2.215481830685459,10,5,6,3,176
2.215481830685459,10,5,6,3,177
2.215481830685459,10,5,6,3,178
2.4178320046991386,10,5,6,3,179
2.4178320046991386,10,5,6,3,180
2.4178320046991386,10,5,6,3,181
2.4096728992240584,10,5,6,3,182
2.4096728992240584,10,5,6,3,183
2.4096728992240584,10,5,6,3,184
2.4096728992240584,10,5,6,3,185
2.4096728992240584,10,5,6,3,186
2.4096728992240584,10,5,6,3,187
2.4096728992240584,10,5,6,3,188
2.4096728992240584,10,5,6,3,189
2.401555355106533,10,5,6,3,190
2.401555355106533,10,5,6,3,191
2.401555355106533,10,5,6,3,192
2.401555355106533,10,5,6,3,193
2.401555355106533,10,5,6,3,194
2.401555355106533,10,5,6,3,195
2.401555355106533,10,5,6,3,196
2.401555355106533,10,5,6,3,197
2.393479221609303,10,5,6,3,198
2.393479221609303,10,5,6,3,199
2.393479221609303,10,5,6,3,200
2.393479221609303,10,5,6,3,201
2.393479221609303,10,5,6,3,202
2.393479221609303,10,5,6,3,203
2.393479221609303,10,5,6,3,204
2.393479221609303,10,5,6,3,205
2.3854443453017766,10,5,6,3,206
2.3854443453017766,10,5,6,3,207
2.3854443453017766,10,5,6,3,208
2.3854443453017766,10,5,6,3,209
2.3854443453017766,10,5,6,3,210
2.3854443453017766,10,5,6,3,211
2.3854443453017766,10,5,6,3,212
2.3854443453017766,10,5,6,3,213
2.3774505701810895,10,5,6,3,214
2.3774505701810895,10,5,6,3,215
2.3774505701810895,10,5,6,3,216
2.3774505701810895,10,5,6,3,217
2.3774505701810895,10,5,6,3,218
2.3774505701810895,10,5,6,3,219
2.3774505701810895,10,5,6,3,220
2.3774505701810895,10,5,6,3,221
2.369497737789806,10,5,6,3,222
2.369497737789806,10,5,6,3,223
2.369497737789806,10,5,6,3,224
2.369497737789806,10,5,6,3,225
2.369497737789806,10,5,6,3,226
2.369497737789806,10,5,6,3,227
2.369497737789806,10,5,6,3,228
2.369497737789806,10,5,6,3,229
2.3615856873303707,10,5,6,3,230
2.3615856873303707,10,5,6,3,231
2.3615856873303707,10,5,6,3,232
2.3615856873303707,10,5,6,3,233
2.3615856873303707,10,5,6,3,234
2.3615856873303707,10,5,6,3,235
2.3615856873303707,10,5,6,3,236
2.3615856873303707,10,5,6,3,237
2.3537142557763415,10,5,6,3,238
2.3537142557763415,10,5,6,3,239
2.3537142557763415,10,5,6,3,240
2.3537142557763415,10,5,6,3,241
2.3537142557763415,10,5,6,3,242
2.3537142557763415,10,5,6,3,243
2.3537142557763415,10,5,6,3,244
2.3537142557763415,10,5,6,3,245
2.345883277980522,10,5,6,3,246
2.345883277980522,10,5,6,3,247
2.345883277980522,10,5,6,3,248
2.345883277980522,10,5,6,3,249
2.345883277980522,10,5,6,3,250
2.345883277980522,10,5,6,3,251
2.345883277980522,10,5,6,3,252
2.345883277980522,10,5,6,3,253
2.338092586780018,10,5,6,3,254
2.338092586780018,10,5,6,3,255
2.338092586780018,10,5,6,3,0
2.338092586780018,10,5,6,3,1
2.338092586780018,10,5,6,3,2
2.338092586780018,10,5,6,3,3
2.338092586780018,10,5,6,3,4
2.338092586780018,10,5,6,3,5
2.330342013098329,10,5,6,3,6
2.330342013098329,10,5,6,3,7
2.330342013098329,10,5,6,3,8
2.330342013098329,10,5,6,3,9
2.330342013098329,10,5,6,3,10
2.330342013098329,10,5,6,3,11
2.330342013098329,10,5,6,3,12
2.330342013098329,10,5,6,3,13
2.322631386044512,10,5,6,4,14
2.322631386044512,10,5,6,4,15
2.322631386044512,10,5,6,4,16
2.322631386044512,10,5,6,4,17
2.322631386044512,10,5,6,4,18
2.322631386044512,10,5,6,4,19
2.322631386044512,10,5,6,4,20
2.322631386044512,10,5,6,4,21
2.3149605330094984,10,5,6,4,22
2.3149605330094984,10,5,6,4,23
2.3149605330094984,10,5,6,4,24
2.3149605330094984,10,5,6,4,25
2.3149605330094984,10,5,6,4,26
2.3149605330094984,10,5,6,4,27
2.3149605330094984,10,5,6,4,28
2.3149605330094984,10,5,6,4,29
2.307329279759638,10,5,6,4,30
2.307329279759638,10,5,6,4,31
2.307329279759638,10,5,6,4,32
2.307329279759638,10,5,6,4,33
2.307329279759638,10,5,6,4,34
2.307329279759638,10,5,6,4,35
2.307329279759638,10,5,6,4,36
2.307329279759638,10,5,6,4,37
2.2997374505275134,10,5,6,4,38
2.2997374505275134,10,5,6,4,39
2.2997374505275134,10,5,6,4,40
2.2997374505275134,10,5,6,4,41
2.2997374505275134,10,5,6,4,42
2.2997374505275134,10,5,6,4,43
2.2997374505275134,10,5,6,4,44
2.2997374505275134,10,5,6,4,45
2.2921848681001107,10,5,6,4,46
2.2921848681001107,10,5,6,4,47
2.2921848681001107,10,5,6,4,48
2.2921848681001107,10,5,6,4,49
2.2921848681001107,10,5,6,4,50
2.2921848681001107,10,5,6,4,51
2.2921848681001107,10,5,6,4,52
2.2921848681001107,10,5,6,4,53
2.2846713539043986,10,5,6,4,54
2.2846713539043986,10,5,6,4,55
2.2846713539043986,10,5,6,4,56
2.2846713539043986,10,5,6,4,57
2.2846713539043986,10,5,6,4,58
2.2846713539043986,10,5,6,4,59
2.2846713539043986,10,5,6,4,60
2.2846713539043986,10,5,6,4,61
2.277196728090375,10,5,6,4,62
2.277196728090375,10,5,6,4,63
2.277196728090375,10,5,6,4,64
2.277196728090375,10,5,6,4,65
2.277196728090375,10,5,6,4,66
2.277196728090375,10,5,6,4,67
2.277196728090375,10,5,6,4,68
2.277196728090375,10,5,6,4,69
2.269760809611658,10,5,6,4,70
2.269760809611658,10,5,6,4,71
2.269760809611658,10,5,6,4,72
2.269760809611658,10,5,6,4,73
2.269760809611658,10,5,6,4,74
2.269760809611658,10,5,6,4,75
2.269760809611658,10,5,6,4,76
2.269760809611658,10,5,6,4,77
2.262363416303651,10,5,6,4,78
2.262363416303651,10,5,6,4,79
2.262363416303651,10,5,6,4,80
2.262363416303651,10,5,6,4,81
2.262363416303651,10,5,6,4,82
2.262363416303651,10,5,6,4,83
2.262363416303651,10,5,6,4,84
2.262363416303651,10,5,6,4,85
2.2550043649593787,10,5,6,4,86
2.2550043649593787,10,5,6,4,87
2.2550043649593787,10,5,6,4,88
2.2550043649593787,10,5,6,4,89
2.2550043649593787,10,5,6,4,90
2.2550043649593787,10,5,6,4,91
2.2550043649593787,10,5,6,4,92
2.2550043649593787,10,5,6,4,93
2.2476834714030174,10,5,6,4,94
2.2476834714030174,10,5,6,4,95
2.2476834714030174,10,5,6,4,96
2.2476834714030174,10,5,6,4,97
2.2476834714030174,10,5,6,4,98
2.2476834714030174,10,5,6,4,99
2.2476834714030174,10,5,6,4,100
2.2476834714030174,10,5,6,4,101
2.240400550561194,10,5,6,4,102
2.240400550561194,10,5,6,4,103
2.240400550561194,10,5,6,4,104
2.240400550561194,10,5,6,4,105
2.240400550561194,10,5,6,4,106
2.240400550561194,10,5,6,4,107
2.240400550561194,10,5,6,4,108
2.240400550561194,10,5,6,4,109
2.2331554165321115,10,5,6,4,110
2.2331554165321115,10,5,6,4,111
2.2331554165321115,10,5,6,4,112
2.2331554165321115,10,5,6,4,113
2.2331554165321115,10,5,6,6,114
2.2331554165321115,10,5,6,6,115
2.2331554165321115,10,5,6,6,116
2.2331554165321115,10,5,6,6,117
2.2259478826525343,10,5,6,6,118
2.2259478826525343,10,5,6,6,119
2.417224935153717,10,5,6,6,120
2.417224935153717,10,5,6,6,121
2.417224935153717,10,5,6,6,122
2.417224935153717,10,5,6,6,123
2.417224935153717,10,5,6,6,124
2.417224935153717,10,5,6,6,125
2.4094386812070505,10,5,6,6,126
2.4094386812070505,10,5,6,6,127
2.4094386812070505,10,5,6,6,128
2.4094386812070505,10,5,6,6,129
2.4094386812070505,10,5,6,6,130
2.4094386812070505,10,5,6,6,131
2.4094386812070505,10,5,6,6,132
2.4094386812070505,10,5,6,6,133
2.4016928508061293,10,5,6,6,134
2.4016928508061293,10,5,6,6,135
2.4016928508061293,10,5,6,6,136
2.4016928508061293,10,5,6,6,137
2.4016928508061293,10,5,6,6,138
2.4016928508061293,10,5,6,6,139
2.4016928508061293,10,5,6,6,140
2.4016928508061293,10,5,6,6,141
2.393987239181317,10,5,6,6,142
2.393987239181317,10,5,6,6,143
2.393987239181317,10,5,6,6,144
2.393987239181317,10,5,6,6,145
2.393987239181317,10,5,6,6,146
2.393987239181317,10,5,6,6,147
2.393987239181317,10,5,6,6,148
2.393987239181317,10,5,6,6,149
2.386321641005162,10,5,6,6,150
2.386321641005162,10,5,6,6,151
2.386321641005162,10,5,6,6,152
2.386321641005162,10,5,6,6,153
2.386321641005162,10,5,6,6,154
2.386321641005162,10,5,6,6,155
2.386321641005162,10,5,6,6,156
2.386321641005162,10,5,6,6,157
2.378695850454449,10,5,6,6,158
2.378695850454449,10,5,6,6,159
2.378695850454449,10,5,6,6,160
2.378695850454449,10,5,6,6,161
2.378695850454449,10,5,6,6,162
2.378695850454449,10,5,6,6,163
2.378695850454449,10,5,6,6,164
2.378695850454449,10,5,6,6,165
2.371109661270269,10,5,6,6,166
2.371109661270269,10,5,6,6,167
2.371109661270269,10,5,6,6,168
2.371109661270269,10,5,6,6,169
2.371109661270269,10,5,6,6,170
2.371109661270269,10,5,6,6,171
2.371109661270269,10,5,6,6,172
2.371109661270269,10,5,6,6,173
2.3635628668161544,10,5,6,6,174
2.3635628668161544,10,5,6,6,175
2.3635628668161544,10,5,6,6,176
2.3635628668161544,10,5,6,6,177
2.3635628668161544,10,5,6,6,178
2.3635628668161544,10,5,6,6,179
2.3635628668161544,10,5,6,6,180
2.3635628668161544,10,5,6,6,181
2.356055260134346,10,5,6,6,182
2.356055260134346,10,5,6,6,183
2.356055260134346,10,5,6,6,184
2.356055260134346,10,5,6,6,185
2.356055260134346,10,5,6,6,186
2.356055260134346,10,5,6,6,187
2.356055260134346,10,5,6,6,188
2.356055260134346,10,5,6,6,189
2.3485866340002173,10,5,6,6,190
2.3485866340002173,10,5,6,6,191
2.3485866340002173,10,5,6,6,192
2.3485866340002173,10,5,6,6,193
2.3485866340002173,10,5,6,6,194
2.3485866340002173,10,5,6,6,195
2.3485866340002173,10,5,6,6,196
2.3485866340002173,10,5,6,6,197
2.341156780974926,10,5,6,6,198
2.341156780974926,10,5,6,6,199
2.341156780974926,10,5,6,6,200
2.341156780974926,10,5,6,6,201
2.341156780974926,10,5,6,6,202
2.341156780974926,10,5,6,6,203
2.341156780974926,10,5,6,6,204
2.341156780974926,10,5,6,6,205
2.333765493456321,10,5,6,6,206
2.333765493456321,10,5,6,6,207
2.333765493456321,10,5,6,6,208
2.333765493456321,10,5,6,6,209
2.333765493456321,10,5,6,6,210
2.333765493456321,10,5,6,6,211
2.333765493456321,10,5,6,6,212
2.333765493456321,10,5,6,6,213
2.3264125637281654,10,5,6,7,214
2.3264125637281654,10,5,6,7,215
2.3264125637281654,10,5,6,7,216
2.3264125637281654,10,5,6,7,217
2.3264125637281654,10,5,6,7,218
2.3264125637281654,10,5,6,7,219
2.3264125637281654,10,5,6,7,220
2.3264125637281654,10,5,6,7,221
2.319097784007708,10,5,6,7,222
2.319097784007708,10,5,6,7,223
2.319097784007708,10,5,6,7,224
2.319097784007708,10,5,6,7,225
2.319097784007708,10,5,6,7,226
2.319097784007708,10,5,6,7,227
2.319097784007708,10,5,6,7,228
2.319097784007708,10,5,6,7,229
2.311820946491654,10,5,6,7,230
2.311820946491654,10,5,6,7,231
2.311820946491654,10,5,6,7,232
2.311820946491654,10,5,6,7,233
2.311820946491654,10,5,6,7,234
2.311820946491654,10,5,6,7,235
2.311820946491654,10,5,6,7,236
2.311820946491654,10,5,6,7,237
2.3045818434005794,10,5,6,7,238
2.3045818434005794,10,5,6,7,239
2.3045818434005794,10,5,6,7,240
2.3045818434005794,10,5,6,7,241
2.3045818434005794,10,5,6,7,242
2.3045818434005794,10,5,6,7,243
2.3045818434005794,10,5,6,7,244
2.3045818434005794,10,5,6,7,245
2.2973802670218197,10,5,6,7,246
2.2973802670218197,10,5,6,7,247
2.2973802670218197,10,5,6,7,248
2.2973802670218197,10,5,6,7,249
2.2973802670218197,10,5,6,7,250
2.2973802670218197,10,5,6,7,251
2.2973802670218197,10,5,6,7,252
2.2973802670218197,10,5,6,7,253
2.2902160097508872,10,5,6,7,254
2.2902160097508872,10,5,6,7,255
2.2902160097508872,10,5,6,7,0
2.2902160097508872,10,5,6,7,1
2.2902160097508872,10,5,6,7,2
2.2902160097508872,10,5,6,7,3
2.2902160097508872,10,5,6,7,4
2.2902160097508872,10,5,6,7,5
2.283088864131447,10,5,6,7,6
2.283088864131447,10,5,6,7,7
2.283088864131447,10,5,6,7,8
2.283088864131447,10,5,6,7,9
2.283088864131447,10,5,6,7,10
2.283088864131447,10,5,6,7,11
2.283088864131447,10,5,6,7,12
2.283088864131447,10,5,6,7,13
2.275998622893895,10,5,6,7,14
2.275998622893895,10,5,6,7,15
2.275998622893895,10,5,6,7,16
2.275998622893895,10,5,6,7,17
2.275998622893895,10,5,6,7,18
2.275998622893895,10,5,6,7,19
2.275998622893895,10,5,6,7,20
2.275998622893895,10,5,6,7,21
2.268945078992575,10,5,6,7,22
2.268945078992575,10,5,6,7,23
2.268945078992575,10,5,6,7,24
2.268945078992575,10,5,6,7,25
2.268945078992575,10,5,6,7,26
2.268945078992575,10,5,6,7,27
2.268945078992575,10,5,6,7,28
2.268945078992575,10,5,6,7,29
2.2619280256416716,10,5,6,7,30
2.2619280256416716,10,5,6,7,31
2.2619280256416716,10,5,6,7,32
2.2619280256416716,10,5,6,7,33
2.2619280256416716,10,5,6,7,34
2.2619280256416716,10,5,6,7,35
2.2619280256416716,10,5,6,7,36
2.2619280256416716,10,5,6,7,37
2.254947256349811,10,5,6,7,38
2.254947256349811,10,5,6,7,39
2.254947256349811,10,5,6,7,40
2.254947256349811,10,5,6,7,41
2.254947256349811,10,5,6,7,42
2.254947256349811,10,5,6,7,43
2.254947256349811,10,5,6,7,44
2.254947256349811,10,5,6,7,45
2.2480025649534188,10,5,6,7,46
2.2480025649534188,10,5,6,7,47
2.2480025649534188,10,5,6,7,48
2.2480025649534188,10,5,6,7,49
2.2480025649534188,10,5,6,7,50
2.2480025649534188,10,5,6,7,51
2.2480025649534188,10,5,6,7,52
2.2480025649534188,10,5,6,7,53
2.241093745648848,10,5,6,7,54
2.241093745648848,10,5,6,7,55
2.241093745648848,10,5,6,7,56
2.241093745648848,10,5,6,7,57
2.241093745648848,10,5,6,8,58
2.241093745648848,10,5,6,8,59
2.241093745648848,10,5,6,8,60
2.241093745648848,10,5,6,8,61
2.4146126515203536,10,5,6,8,62
2.4146126515203536,10,5,6,8,63
2.4146126515203536,10,5,6,8,64
2.4146126515203536,10,5,6,8,65
2.4146126515203536,10,5,6,8,66
2.4146126515203536,10,5,6,8,67
2.4146126515203536,10,5,6,8,68
2.4146126515203536,10,5,6,8,69
2.4072228820862223,10,5,6,8,70
2.4072228820862223,10,5,6,8,71
2.4072228820862223,10,5,6,8,72
2.4072228820862223,10,5,6,8,73
2.4072228820862223,10,5,6,8,74
2.4072228820862223,10,5,6,8,75
2.4072228820862223,10,5,6,8,76
2.4072228820862223,10,5,6,8,77
2.3998712164753004,10,5,6,8,78
2.3998712164753004,10,5,6,8,79
2.3998712164753004,10,5,6,8,80
2.3998712164753004,10,5,6,8,81
2.3998712164753004,10,5,6,8,82
2.3998712164753004,10,5,6,8,83
2.3998712164753004,10,5,6,8,84
2.3998712164753004,10,5,6,8,85
2.392557434145418,10,5,6,8,86
2.392557434145418,10,5,6,8,87
2.392557434145418,10,5,6,8,88
2.392557434145418,10,5,6,8,89
2.392557434145418,10,5,6,8,90
2.392557434145418,10,5,6,8,91
2.392557434145418,10,5,6,8,92
2.392557434145418,10,5,6,8,93
2.3852813150985286,10,5,6,8,94
2.3852813150985286,10,5,6,8,95
2.3852813150985286,10,5,6,8,96
2.3852813150985286,10,5,6,8,97
2.3852813150985286,10,5,6,8,98
2.3852813150985286,10,5,6,8,99
2.3852813150985286,10,5,6,8,100
2.3852813150985286,10,5,6,8,101
2.3780426399082693,10,5,6,8,102
2.3780426399082693,10,5,6,8,103
2.3780426399082693,10,5,6,8,104
2.3780426399082693,10,5,6,8,105
2.3780426399082693,10,5,6,8,106
2.3780426399082693,10,5,6,8,107
2.3780426399082693,10,5,6,8,108
2.3780426399082693,10,5,6,8,109
2.370841189746446,10,5,6,8,110
2.370841189746446,10,5,6,8,111
2.370841189746446,10,5,6,8,112
2.370841189746446,10,5,6,8,113
2.370841189746446,10,5,6,8,114
2.370841189746446,10,5,6,8,115
2.370841189746446,10,5,6,8,116
2.370841189746446,10,5,6,8,117
2.3636767464084647,10,5,6,8,118
2.3636767464084647,10,5,6,8,119
2.3636767464084647,10,5,6,8,120
2.3636767464084647,10,5,6,8,121
2.3636767464084647,10,5,6,8,122
2.3636767464084647,10,5,6,8,123
2.3636767464084647,10,5,6,8,124
2.3636767464084647,10,5,6,8,125
2.3565490923377457,10,5,6,8,126
2.3565490923377457,10,5,6,8,127
2.3565490923377457,10,5,6,8,128
2.3565490923377457,10,5,6,8,129
2.3565490923377457,10,5,6,8,130
2.3565490923377457,10,5,6,8,131
2.3565490923377457,10,5,6,8,132
2.3565490923377457,10,5,6,8,133
2.349458010649146,10,5,6,8,134
2.349458010649146,10,5,6,8,135
2.349458010649146,10,5,6,8,136
2.349458010649146,10,5,6,8,137
2.349458010649146,10,5,6,8,138
2.349458010649146,10,5,6,8,139
2.349458010649146,10,5,6,8,140
2.349458010649146,10,5,6,8,141
2.342403285151422,10,5,6,8,142
2.342403285151422,10,5,6,8,143
2.342403285151422,10,5,6,8,144
2.342403285151422,10,5,6,8,145
2.342403285151422,10,5,6,8,146
2.342403285151422,10,5,6,8,147
2.342403285151422,10,5,6,8,148
2.342403285151422,10,5,6,8,149
2.3353847003687562,10,5,6,8,150
2.3353847003687562,10,5,6,8,151
2.3353847003687562,10,5,6,8,152
2.3353847003687562,10,5,6,8,153
2.3353847003687562,10,5,6,8,154
2.3353847003687562,10,5,6,8,155
2.3353847003687562,10,5,6,8,156
2.3353847003687562,10,5,6,8,157
2.328402041561375,10,5,6,8,158
2.328402041561375,10,5,6,8,159
2.328402041561375,10,5,6,8,160
2.328402041561375,10,5,6,8,161
2.328402041561375,10,5,6,8,162
2.328402041561375,10,5,6,8,163
2.328402041561375,10,5,6,8,164
2.328402041561375,10,5,6,8,165
2.321455094745292,10,5,6,8,166
2.321455094745292,10,5,6,8,167
2.321455094745292,10,5,6,8,168
2.321455094745292,10,5,6,8,169
2.321455094745292,10,5,6,8,170
2.321455094745292,10,5,6,8,171
2.321455094745292,10,5,6,8,172
2.321455094745292,10,5,6,8,173
2.3145436467111873,10,5,6,8,174
2.3145436467111873,10,5,6,8,175
2.3145436467111873,10,5,6,8,176
2.3145436467111873,10,5,6,8,177
2.3145436467111873,10,5,6,8,178
2.3145436467111873,10,5,6,8,179
2.3145436467111873,10,5,6,8,180
2.3145436467111873,10,5,6,8,181
2.307667485042463,10,5,6,8,182
2.307667485042463,10,5,6,8,183
2.307667485042463,10,5,6,8,184
2.307667485042463,10,5,6,8,185
2.307667485042463,10,5,6,8,186
2.307667485042463,10,5,6,8,187
2.307667485042463,10,5,6,8,188
2.307667485042463,10,5,6,8,189
2.3008263981324903,10,5,6,8,190
2.3008263981324903,10,5,6,8,191
2.3008263981324903,10,5,6,8,192
2.3008263981324903,10,5,6,8,193
2.3008263981324903,10,5,6,8,194
2.3008263981324903,10,5,6,8,195
2.3008263981324903,10,5,6,8,196
2.3008263981324903,10,5,6,8,197
2.294020175201072,10,5,6,8,198
2.294020175201072,10,5,6,8,199
2.294020175201072,10,5,6,8,200
2.294020175201072,10,5,6,8,201
2.294020175201072,10,5,6,8,202
2.294020175201072,10,5,6,8,203
2.294020175201072,10,5,6,8,204
2.294020175201072,10,5,6,8,205
2.2872486063101514,10,5,6,8,206
2.2872486063101514,10,5,6,8,207
2.2872486063101514,10,5,6,8,208
2.2872486063101514,10,5,6,8,209
2.2872486063101514,10,5,6,8,210
2.2872486063101514,10,5,6,8,211
2.2872486063101514,10,5,6,8,212
2.2872486063101514,10,5,6,8,213
2.2805114823787775,10,5,6,8,214
2.2805114823787775,10,5,6,8,215
2.2805114823787775,10,5,6,8,216
2.2805114823787775,10,5,6,8,217
2.2805114823787775,10,5,6,8,218
2.2805114823787775,10,5,6,8,219
2.2805114823787775,10,5,6,8,220
2.2805114823787775,10,5,6,8,221
2.2738085951973606,10,5,6,8,222
2.2738085951973606,10,5,6,8,223
2.2738085951973606,10,5,6,8,224
2.2738085951973606,10,5,6,8,225
2.2738085951973606,10,5,6,8,226
2.2738085951973606,10,5,6,8,227
2.2738085951973606,10,5,6,8,228
2.2738085951973606,10,5,6,8,229
2.267139737441232,10,5,6,8,230
2.267139737441232,10,5,6,8,231
2.267139737441232,10,5,6,8,232
2.267139737441232,10,5,6,8,233
2.267139737441232,10,5,6,8,234
2.267139737441232,10,5,6,8,235
2.267139737441232,10,5,6,8,236
2.267139737441232,10,5,6,8,237
2.260504702683532,10,5,6,8,238
2.260504702683532,10,5,6,8,239
2.260504702683532,10,5,6,8,240
2.260504702683532,10,5,6,8,241
2.260504702683532,10,5,6,8,242
2.260504702683532,10,5,6,8,243
2.260504702683532,10,5,6,8,244
2.260504702683532,10,5,6,8,245
2.2539032854074423,10,5,6,8,246
2.2539032854074423,10,5,6,8,247
2.2539032854074423,10,5,6,8,248
2.2539032854074423,10,5,6,8,249
2.2539032854074423,10,5,6,8,250
2.2539032854074423,10,5,6,8,251
2.2539032854074423,10,5,6,8,252
2.2539032854074423,10,5,6,8,253
2.247335281017793,10,5,6,8,254
2.247335281017793,10,5,6,8,255
2.247335281017793,10,5,6,8,0
2.247335281017793,10,5,6,8,1
2.247335281017793,10,5,7,1,2
2.247335281017793,10,5,7,1,3
2.417880285904438,10,5,7,1,4
2.417880285904438,10,5,7,1,5
2.4108495804564636,10,5,7,1,6
2.4108495804564636,10,5,7,1,7
2.4108495804564636,10,5,7,1,8
2.4108495804564636,10,5,7,1,9
2.4108495804564636,10,5,7,1,10
2.4108495804564636,10,5,7,1,11
2.4108495804564636,10,5,7,1,12
2.4108495804564636,10,5,7,1,13
2.403854386299109,10,5,7,1,14
2.403854386299109,10,5,7,1,15
2.403854386299109,10,5,7,1,16
2.403854386299109,10,5,7,1,17
2.403854386299109,10,5,7,1,18
2.403854386299109,10,5,7,1,19
2.403854386299109,10,5,7,1,20
2.403854386299109,10,5,7,1,21
2.396894486354112,10,5,7,1,22
2.396894486354112,10,5,7,1,23
2.396894486354112,10,5,7,1,24
2.396894486354112,10,5,7,1,25
2.396894486354112,10,5,7,1,26
2.396894486354112,10,5,7,1,27
2.396894486354112,10,5,7,1,28
2.396894486354112,10,5,7,1,29
2.3899696645783264,10,5,7,1,30
2.3899696645783264,10,5,7,1,31
2.3899696645783264,10,5,7,1,32
2.3899696645783264,10,5,7,1,33
2.3899696645783264,10,5,7,1,34
2.3899696645783264,10,5,7,1,35
2.3899696645783264,10,5,7,1,36
2.3899696645783264,10,5,7,1,37
2.383079705973097,10,5,7,1,38
2.383079705973097,10,5,7,1,39
2.383079705973097,10,5,7,1,40
2.383079705973097,10,5,7,1,41
2.383079705973097,10,5,7,1,42
2.383079705973097,10,5,7,1,43
2.383079705973097,10,5,7,1,44
2.383079705973097,10,5,7,1,45
2.3762243965930767,10,5,7,1,46
2.3762243965930767,10,5,7,1,47
2.3762243965930767,10,5,7,1,48
2.3762243965930767,10,5,7,1,49
2.3762243965930767,10,5,7,1,50
2.3762243965930767,10,5,7,1,51
2.3762243965930767,10,5,7,1,52
2.3762243965930767,10,5,7,1,53
2.3694035235544897,10,5,7,1,54
2.3694035235544897,10,5,7,1,55
2.3694035235544897,10,5,7,1,56
2.3694035235544897,10,5,7,1,57
2.3694035235544897,10,5,7,1,58
2.3694035235544897,10,5,7,1,59
2.3694035235544897,10,5,7,1,60
2.3694035235544897,10,5,7,1,61
2.362616875042868,10,5,7,1,62
2.362616875042868,10,5,7,1,63
2.362616875042868,10,5,7,1,64
2.362616875042868,10,5,7,1,65
2.362616875042868,10,5,7,1,66
2.362616875042868,10,5,7,1,67
2.362616875042868,10,5,7,1,68
2.362616875042868,10,5,7,1,69
2.3558642403202743,10,5,7,1,70
2.3558642403202743,10,5,7,1,71
2.3558642403202743,10,5,7,1,72
2.3558642403202743,10,5,7,1,73
2.3558642403202743,10,5,7,1,74
2.3558642403202743,10,5,7,1,75
2.3558642403202743,10,5,7,1,76
2.3558642403202743,10,5,7,1,77
2.3491454097320266,10,5,7,1,78
2.3491454097320266,10,5,7,1,79
2.3491454097320266,10,5,7,1,80
2.3491454097320266,10,5,7,1,81
2.3491454097320266,10,5,7,1,82
2.3491454097320266,10,5,7,1,83
2.3491454097320266,10,5,7,1,84
2.3491454097320266,10,5,7,1,85
2.3424601747129414,10,5,7,1,86
2.3424601747129414,10,5,7,1,87
2.3424601747129414,10,5,7,1,88
2.3424601747129414,10,5,7,1,89
2.3424601747129414,10,5,7,1,90
2.3424601747129414,10,5,7,1,91
2.3424601747129414,10,5,7,1,92
2.3424601747129414,10,5,7,1,93
2.3358083277931145,10,5,7,1,94
2.3358083277931145,10,5,7,1,95
2.3358083277931145,10,5,7,1,96
2.3358083277931145,10,5,7,1,97
2.3358083277931145,10,5,7,1,98
2.3358083277931145,10,5,7,1,99
2.3358083277931145,10,5,7,1,100
2.3358083277931145,10,5,7,1,101
2.3291896626032407,10,5,7,2,102
2.3291896626032407,10,5,7,2,103
2.3291896626032407,10,5,7,2,104
2.3291896626032407,10,5,7,2,105
2.3291896626032407,10,5,7,2,106
2.3291896626032407,10,5,7,2,107
2.3291896626032407,10,5,7,2,108
2.3291896626032407,10,5,7,2,109
2.3226039738795117,10,5,7,2,110
2.3226039738795117,10,5,7,2,111
2.3226039738795117,10,5,7,2,112
2.3226039738795117,10,5,7,2,113
2.3226039738795117,10,5,7,2,114
2.3226039738795117,10,5,7,2,115
2.3226039738795117,10,5,7,2,116
2.3226039738795117,10,5,7,2,117
2.316051057468077,10,5,7,2,118
2.316051057468077,10,5,7,2,119
2.316051057468077,10,5,7,2,120
2.316051057468077,10,5,7,2,121
2.316051057468077,10,5,7,2,122
2.316051057468077,10,5,7,2,123
2.316051057468077,10,5,7,2,124
2.316051057468077,10,5,7,2,125
2.309530710329105,10,5,7,2,126
2.309530710329105,10,5,7,2,127
2.309530710329105,10,5,7,2,128
2.309530710329105,10,5,7,2,129
2.309530710329105,10,5,7,2,130
2.309530710329105,10,5,7,2,131
2.309530710329105,10,5,7,2,132
2.309530710329105,10,5,7,2,133
2.3030427305404437,10,5,7,2,134
2.3030427305404437,10,5,7,2,135
2.3030427305404437,10,5,7,2,136
2.3030427305404437,10,5,7,2,137
2.3030427305404437,10,5,7,2,138
2.3030427305404437,10,5,7,2,139
2.3030427305404437,10,5,7,2,140
2.3030427305404437,10,5,7,2,141
2.296586917300904,10,5,7,2,142
2.296586917300904,10,5,7,2,143
2.296586917300904,10,5,7,2,144
2.296586917300904,10,5,7,2,145
2.296586917300904,10,5,7,2,146
2.296586917300904,10,5,7,2,147
2.296586917300904,10,5,7,2,148
2.296586917300904,10,5,7,2,149
2.2901630709331657,10,5,7,2,150
2.2901630709331657,10,5,7,2,151
2.2901630709331657,10,5,7,2,152
2.2901630709331657,10,5,7,2,153
2.2901630709331657,10,5,7,2,154
2.2901630709331657,10,5,7,2,155
2.2901630709331657,10,5,7,2,156
2.2901630709331657,10,5,7,2,157
2.283770992886335,10,5,7,2,158
2.283770992886335,10,5,7,2,159
2.283770992886335,10,5,7,2,160
2.283770992886335,10,5,7,2,161
2.283770992886335,10,5,7,2,162
2.283770992886335,10,5,7,2,163
2.283770992886335,10,5,7,2,164
2.283770992886335,10,5,7,2,165
2.2774104857381468,10,5,7,2,166
2.2774104857381468,10,5,7,2,167
2.2774104857381468,10,5,7,2,168
2.2774104857381468,10,5,7,2,169
2.2774104857381468,10,5,7,2,170
2.2774104857381468,10,5,7,2,171
2.2774104857381468,10,5,7,2,172
2.2774104857381468,10,5,7,2,173
2.271081353196841,10,5,7,2,174
2.271081353196841,10,5,7,2,175
2.271081353196841,10,5,7,2,176
2.271081353196841,10,5,7,2,177
2.271081353196841,10,5,7,2,178
2.271081353196841,10,5,7,2,179
2.271081353196841,10,5,7,2,180
2.271081353196841,10,5,7,2,181
2.2647834001027105,10,5,7,2,182
2.2647834001027105,10,5,7,2,183
2.2647834001027105,10,5,7,2,184
2.2647834001027105,10,5,7,2,185
2.2647834001027105,10,5,7,2,186
2.2647834001027105,10,5,7,2,187
2.2647834001027105,10,5,7,2,188
2.2647834001027105,10,5,7,2,189
2.2585164324293427,10,5,7,2,190
2.2585164324293427,10,5,7,2,191
2.2585164324293427,10,5,7,2,192
2.2585164324293427,10,5,7,2,193
2.2585164324293427,10,5,7,2,194
2.2585164324293427,10,5,7,2,195
2.2585164324293427,10,5,7,2,196
2.2585164324293427,10,5,7,2,197
2.2522802572845504,10,5,7,2,198
2.2522802572845504,10,5,7,2,199
2.2522802572845504,10,5,7,2,200
2.4131256871150284,10,5,7,2,201
2.4131256871150284,10,5,7,3,202
2.4131256871150284,10,5,7,3,203
2.4131256871150284,10,5,7,3,204
2.4131256871150284,10,5,7,3,205
2.406476944856769,10,5,7,3,206
2.406476944856769,10,5,7,3,207
2.406476944856769,10,5,7,3,208
2.406476944856769,10,5,7,3,209
2.406476944856769,10,5,7,3,210
2.406476944856769,10,5,7,3,211
2.406476944856769,10,5,7,3,212
2.406476944856769,10,5,7,3,213
2.399860784472789,10,5,7,3,214
2.399860784472789,10,5,7,3,215
2.399860784472789,10,5,7,3,216
2.399860784472789,10,5,7,3,217
2.399860784472789,10,5,7,3,218
2.399860784472789,10,5,7,3,219
2.399860784472789,10,5,7,3,220
2.399860784472789,10,5,7,3,221
2.393277002944263,10,5,7,3,222
2.393277002944263,10,5,7,3,223
2.393277002944263,10,5,7,3,224
2.393277002944263,10,5,7,3,225
2.393277002944263,10,5,7,3,226
2.393277002944263,10,5,7,3,227
2.393277002944263,10,5,7,3,228
2.393277002944263,10,5,7,3,229
2.386725398468599,10,5,7,3,230
2.386725398468599,10,5,7,3,231
2.386725398468599,10,5,7,3,232
2.386725398468599,10,5,7,3,233
2.386725398468599,10,5,7,3,234
2.386725398468599,10,5,7,3,235
2.386725398468599,10,5,7,3,236
2.386725398468599,10,5,7,3,237
2.3802057704589967,10,5,7,3,238
2.3802057704589967,10,5,7,3,239
2.3802057704589967,10,5,7,3,240
2.3802057704589967,10,5,7,3,241
2.3802057704589967,10,5,7,3,242
2.3802057704589967,10,5,7,3,243
2.3802057704589967,10,5,7,3,244
2.3802057704589967,10,5,7,3,245
2.3737179195437346,10,5,7,3,246
2.3737179195437346,10,5,7,3,247
2.3737179195437346,10,5,7,3,248
2.3737179195437346,10,5,7,3,249
2.3737179195437346,10,5,7,3,250
2.3737179195437346,10,5,7,3,251
2.3737179195437346,10,5,7,3,252
2.3737179195437346,10,5,7,3,253
2.3672616475652095,10,5,7,3,254
2.3672616475652095,10,5,7,3,255
2.3672616475652095,10,5,7,3,0
2.3672616475652095,10,5,7,3,1
2.3672616475652095,10,5,7,3,2
2.3672616475652095,10,5,7,3,3
2.3672616475652095,10,5,7,3,4
2.3672616475652095,10,5,7,3,5
2.360836757578736,10,5,7,3,6
2.360836757578736,10,5,7,3,7
2.360836757578736,10,5,7,3,8
2.360836757578736,10,5,7,3,9
2.360836757578736,10,5,7,3,10
2.360836757578736,10,5,7,3,11
2.360836757578736,10,5,7,3,12
2.360836757578736,10,5,7,3,13
2.35444305385111,10,5,7,3,14
2.35444305385111,10,5,7,3,15
2.35444305385111,10,5,7,3,16
2.35444305385111,10,5,7,3,17
2.35444305385111,10,5,7,3,18
2.35444305385111,10,5,7,3,19
2.35444305385111,10,5,7,3,20
2.35444305385111,10,5,7,3,21
2.3480803418589464,10,5,7,3,22
2.3480803418589464,10,5,7,3,23
2.3480803418589464,10,5,7,3,24
2.3480803418589464,10,5,7,3,25
2.3480803418589464,10,5,7,3,26
2.3480803418589464,10,5,7,3,27
2.3480803418589464,10,5,7,3,28
2.3480803418589464,10,5,7,3,29
2.341748428286804,10,5,7,3,30
2.341748428286804,10,5,7,3,31
2.341748428286804,10,5,7,3,32
2.341748428286804,10,5,7,3,33
2.341748428286804,10,5,7,3,34
2.341748428286804,10,5,7,3,35
2.341748428286804,10,5,7,3,36
2.341748428286804,10,5,7,3,37
2.3354471210251027,10,5,7,3,38
2.3354471210251027,10,5,7,3,39
2.3354471210251027,10,5,7,3,40
2.3354471210251027,10,5,7,3,41
2.3354471210251027,10,5,7,3,42
2.3354471210251027,10,5,7,3,43
2.3354471210251027,10,5,7,3,44
2.3354471210251027,10,5,7,3,45
2.3291762291678313,10,5,7,4,46
2.3291762291678313,10,5,7,4,47
2.3291762291678313,10,5,7,4,48
2.3291762291678313,10,5,7,4,49
2.3291762291678313,10,5,7,4,50
2.3291762291678313,10,5,7,4,51
2.3291762291678313,10,5,7,4,52
2.3291762291678313,10,5,7,4,53
2.322935563010075,10,5,7,4,54
2.322935563010075,10,5,7,4,55
2.322935563010075,10,5,7,4,56
2.322935563010075,10,5,7,4,57
2.322935563010075,10,5,7,4,58
2.322935563010075,10,5,7,4,59
2.322935563010075,10,5,7,4,60
2.322935563010075,10,5,7,4,61
2.3167249340453493,10,5,7,4,62
2.3167249340453493,10,5,7,4,63
2.3167249340453493,10,5,7,4,64
2.3167249340453493,10,5,7,4,65
2.3167249340453493,10,5,7,4,66
2.3167249340453493,10,5,7,4,67
2.3167249340453493,10,5,7,4,68
2.3167249340453493,10,5,7,4,69
2.310544154962759,10,5,7,4,70
2.310544154962759,10,5,7,4,71
2.310544154962759,10,5,7,4,72
2.310544154962759,10,5,7,4,73
2.310544154962759,10,5,7,4,74
2.310544154962759,10,5,7,4,75
2.310544154962759,10,5,7,4,76
2.310544154962759,10,5,7,4,77
2.3043930396439816,10,5,7,4,78
2.3043930396439816,10,5,7,4,79
2.3043930396439816,10,5,7,4,80
2.3043930396439816,10,5,7,4,81
2.3043930396439816,10,5,7,4,82
2.3043930396439816,10,5,7,4,83
2.3043930396439816,10,5,7,4,84
2.3043930396439816,10,5,7,4,85
2.2982714031600944,10,5,7,4,86
2.2982714031600944,10,5,7,4,87
2.2982714031600944,10,5,7,4,88
2.2982714031600944,10,5,7,4,89
2.2982714031600944,10,5,7,4,90
2.2982714031600944,10,5,7,4,91
2.2982714031600944,10,5,7,4,92
2.2982714031600944,10,5,7,4,93
2.2921790617682354,10,5,7,4,94
2.2921790617682354,10,5,7,4,95
2.2921790617682354,10,5,7,4,96
2.2921790617682354,10,5,7,4,97
2.2921790617682354,10,5,7,4,98
2.2921790617682354,10,5,7,4,99
2.2921790617682354,10,5,7,4,100
2.2921790617682354,10,5,7,4,101
2.286115832908115,10,5,7,4,102
2.286115832908115,10,5,7,4,103
2.286115832908115,10,5,7,4,104
2.286115832908115,10,5,7,4,105
2.286115832908115,10,5,7,4,106
2.286115832908115,10,5,7,4,107
2.286115832908115,10,5,7,4,108
2.286115832908115,10,5,7,4,109
2.280081535198389,10,5,7,4,110
2.280081535198389,10,5,7,4,111
2.280081535198389,10,5,7,4,112
2.280081535198389,10,5,7,4,113
2.280081535198389,10,5,7,4,114
2.280081535198389,10,5,7,4,115
2.280081535198389,10,5,7,4,116
2.280081535198389,10,5,7,4,117
2.2740759884328794,10,5,7,4,118
2.2740759884328794,10,5,7,4,119
2.2740759884328794,10,5,7,4,120
2.2740759884328794,10,5,7,4,121
2.2740759884328794,10,5,7,4,122
2.2740759884328794,10,5,7,4,123
2.2740759884328794,10,5,7,4,124
2.2740759884328794,10,5,7,4,125
2.2680990135766748,10,5,7,4,126
2.2680990135766748,10,5,7,4,127
2.2680990135766748,10,5,7,4,128
2.2680990135766748,10,5,7,4,129
2.2680990135766748,10,5,7,4,130
2.2680990135766748,10,5,7,4,131
2.2680990135766748,10,5,7,4,132
2.2680990135766748,10,5,7,4,133
2.2621504327620934,10,5,7,4,134
2.2621504327620934,10,5,7,4,135
2.2621504327620934,10,5,7,4,136
2.2621504327620934,10,5,7,4,137
2.2621504327620934,10,5,7,4,138
2.2621504327620934,10,5,7,4,139
2.2621504327620934,10,5,7,4,140
2.2621504327620934,10,5,7,4,141
2.2621504327620934,10,5,7,4,142
2.4081229394426398,10,5,7,4,143
2.4081229394426398,10,5,7,4,144
2.4081229394426398,10,5,7,4,145
2.4081229394426398,10,5,7,6,146
2.4081229394426398,10,5,7,6,147
2.4081229394426398,10,5,7,6,148
2.4081229394426398,10,5,7,6,149
2.4018339376193603,10,5,7,6,150
2.4018339376193603,10,5,7,6,151
2.4018339376193603,10,5,7,6,152
2.4018339376193603,10,5,7,6,153
2.4018339376193603,10,5,7,6,154
2.4018339376193603,10,5,7,6,155
2.4018339376193603,10,5,7,6,156
2.4018339376193603,10,5,7,6,157
2.3955746792720287,10,5,7,6,158
2.3955746792720287,10,5,7,6,159
2.3955746792720287,10,5,7,6,160
2.3955746792720287,10,5,7,6,161
2.3955746792720287,10,5,7,6,162
2.3955746792720287,10,5,7,6,163
2.3955746792720287,10,5,7,6,164
2.3955746792720287,10,5,7,6,165
2.3893449794963075,10,5,7,6,166
2.3893449794963075,10,5,7,6,167
2.3893449794963075,10,5,7,6,168
2.3893449794963075,10,5,7,6,169
2.3893449794963075,10,5,7,6,170
2.3893449794963075,10,5,7,6,171
2.3893449794963075,10,5,7,6,172
2.3893449794963075,10,5,7,6,173
2.3831446546103,10,5,7,6,174
2.3831446546103,10,5,7,6,175
2.3831446546103,10,5,7,6,176
2.3831446546103,10,5,7,6,177
2.3831446546103,10,5,7,6,178
2.3831446546103,10,5,7,6,179
2.3831446546103,10,5,7,6,180
2.3831446546103,10,5,7,6,181
2.3769735221495423,10,5,7,6,182
2.3769735221495423,10,5,7,6,183
2.3769735221495423,10,5,7,6,184
2.3769735221495423,10,5,7,6,185
2.3769735221495423,10,5,7,6,186
2.3769735221495423,10,5,7,6,187
2.3769735221495423,10,5,7,6,188
2.3769735221495423,10,5,7,6,189
2.370831400861899,10,5,7,6,190
2.370831400861899,10,5,7,6,191
2.370831400861899,10,5,7,6,192
2.370831400861899,10,5,7,6,193
2.370831400861899,10,5,7,6,194
2.370831400861899,10,5,7,6,195
2.370831400861899,10,5,7,6,196
2.370831400861899,10,5,7,6,197
2.3647181107023636,10,5,7,6,198
2.3647181107023636,10,5,7,6,199
2.3647181107023636,10,5,7,6,200
2.3647181107023636,10,5,7,6,201
2.3647181107023636,10,5,7,6,202
2.3647181107023636,10,5,7,6,203
2.3647181107023636,10,5,7,6,204
2.3647181107023636,10,5,7,6,205
2.35863347282777,10,5,7,6,206
2.35863347282777,10,5,7,6,207
2.35863347282777,10,5,7,6,208
2.35863347282777,10,5,7,6,209
2.35863347282777,10,5,7,6,210
2.35863347282777,10,5,7,6,211
2.35863347282777,10,5,7,6,212
2.35863347282777,10,5,7,6,213
2.3525773095914184,10,5,7,6,214
2.3525773095914184,10,5,7,6,215
2.3525773095914184,10,5,7,6,216
2.3525773095914184,10,5,7,6,217
2.3525773095914184,10,5,7,6,218
2.3525773095914184,10,5,7,6,219
2.3525773095914184,10,5,7,6,220
2.3525773095914184,10,5,7,6,221
2.346549444537619,10,5,7,6,222
2.346549444537619,10,5,7,6,223
2.346549444537619,10,5,7,6,224
2.346549444537619,10,5,7,6,225
2.346549444537619,10,5,7,6,226
2.346549444537619,10,5,7,6,227
2.346549444537619,10,5,7,6,228
2.346549444537619,10,5,7,6,229
2.340549702396162,10,5,7,6,230
2.340549702396162,10,5,7,6,231
2.340549702396162,10,5,7,6,232
2.340549702396162,10,5,7,6,233
2.340549702396162,10,5,7,6,234
2.340549702396162,10,5,7,6,235
2.340549702396162,10,5,7,6,236
2.340549702396162,10,5,7,6,237
2.33457790907671,10,5,7,6,238
2.33457790907671,10,5,7,6,239
2.33457790907671,10,5,7,6,240
2.33457790907671,10,5,7,6,241
2.33457790907671,10,5,7,6,242
2.33457790907671,10,5,7,6,243
2.33457790907671,10,5,7,6,244
2.33457790907671,10,5,7,6,245
2.328633891663129,10,5,7,7,246
2.328633891663129,10,5,7,7,247
2.328633891663129,10,5,7,7,248
2.328633891663129,10,5,7,7,249
2.328633891663129,10,5,7,7,250
2.328633891663129,10,5,7,7,251
2.328633891663129,10,5,7,7,252
2.328633891663129,10,5,7,7,253
2.3227174784077502,10,5,7,7,254
2.3227174784077502,10,5,7,7,255
2.3227174784077502,10,5,7,7,0
2.3227174784077502,10,5,7,7,1
2.3227174784077502,10,5,7,7,2
2.3227174784077502,10,5,7,7,3
2.3227174784077502,10,5,7,7,4
2.3227174784077502,10,5,7,7,5
2.3168284987255663,10,5,7,7,6
2.3168284987255663,10,5,7,7,7
2.3168284987255663,10,5,7,7,8
2.3168284987255663,10,5,7,7,9
2.3168284987255663,10,5,7,7,10
2.3168284987255663,10,5,7,7,11
2.3168284987255663,10,5,7,7,12
2.3168284987255663,10,5,7,7,13
2.3109667831883773,10,5,7,7,14
2.3109667831883773,10,5,7,7,15
2.3109667831883773,10,5,7,7,16
2.3109667831883773,10,5,7,7,17
2.3109667831883773,10,5,7,7,18
2.3109667831883773,10,5,7,7,19
2.3109667831883773,10,5,7,7,20
2.3109667831883773,10,5,7,7,21
2.3051321635188815,10,5,7,7,22
2.3051321635188815,10,5,7,7,23
2.3051321635188815,10,5,7,7,24
2.3051321635188815,10,5,7,7,25
2.3051321635188815,10,5,7,7,26
2.3051321635188815,10,5,7,7,27
2.3051321635188815,10,5,7,7,28
2.3051321635188815,10,5,7,7,29
2.299324472584708,10,5,7,7,30
2.299324472584708,10,5,7,7,31
2.299324472584708,10,5,7,7,32
2.299324472584708,10,5,7,7,33
2.299324472584708,10,5,7,7,34
2.299324472584708,10,5,7,7,35
2.299324472584708,10,5,7,7,36
2.299324472584708,10,5,7,7,37
2.2935435443924135,10,5,7,7,38
2.2935435443924135,10,5,7,7,39
2.2935435443924135,10,5,7,7,40
2.2935435443924135,10,5,7,7,41
2.2935435443924135,10,5,7,7,42
2.2935435443924135,10,5,7,7,43
2.2935435443924135,10,5,7,7,44
2.2935435443924135,10,5,7,7,45
2.2877892140814207,10,5,7,7,46
2.2877892140814207,10,5,7,7,47
2.2877892140814207,10,5,7,7,48
2.2877892140814207,10,5,7,7,49
2.2877892140814207,10,5,7,7,50
2.2877892140814207,10,5,7,7,51
2.2877892140814207,10,5,7,7,52
2.2877892140814207,10,5,7,7,53
2.282061317917929,10,5,7,7,54
2.282061317917929,10,5,7,7,55
2.282061317917929,10,5,7,7,56
2.282061317917929,10,5,7,7,57
2.282061317917929,10,5,7,7,58
2.282061317917929,10,5,7,7,59
2.282061317917929,10,5,7,7,60
2.282061317917929,10,5,7,7,61
2.2763596932887755,10,5,7,7,62
2.2763596932887755,10,5,7,7,63
2.2763596932887755,10,5,7,7,64
2.2763596932887755,10,5,7,7,65
2.2763596932887755,10,5,7,7,66
2.2763596932887755,10,5,7,7,67
2.2763596932887755,10,5,7,7,68
2.2763596932887755,10,5,7,7,69
2.2706841786952663,10,5,7,7,70
2.2706841786952663,10,5,7,7,71
2.2706841786952663,10,5,7,7,72
2.2706841786952663,10,5,7,7,73
2.2706841786952663,10,5,7,7,74
2.2706841786952663,10,5,7,7,75
2.2706841786952663,10,5,7,7,76
2.2706841786952663,10,5,7,7,77
2.2650346137469755,10,5,7,7,78
2.2650346137469755,10,5,7,7,79
2.2650346137469755,10,5,7,7,80
2.2650346137469755,10,5,7,7,81
2.2650346137469755,10,5,7,7,82
2.2650346137469755,10,5,7,7,83
2.2650346137469755,10,5,7,7,84
2.4030846833977293,10,5,7,7,85
2.4030846833977293,10,5,7,7,86
2.4030846833977293,10,5,7,7,87
2.4030846833977293,10,5,7,7,88
2.4030846833977293,10,5,7,7,89
2.4030846833977293,10,5,7,8,90
2.4030846833977293,10,5,7,8,91
2.4030846833977293,10,5,7,8,92
2.4030846833977293,10,5,7,8,93
2.39713056027443,10,5,7,8,94
2.39713056027443,10,5,7,8,95
2.39713056027443,10,5,7,8,96
2.39713056027443,10,5,7,8,97
2.39713056027443,10,5,7,8,98
2.39713056027443,10,5,7,8,99
2.39713056027443,10,5,7,8,100
2.39713056027443,10,5,7,8,101
2.391203532147747,10,5,7,8,102
2.391203532147747,10,5,7,8,103
2.391203532147747,10,5,7,8,104
2.391203532147747,10,5,7,8,105
2.391203532147747,10,5,7,8,106
2.391203532147747,10,5,7,8,107
2.391203532147747,10,5,7,8,108
2.391203532147747,10,5,7,8,109
2.3853034330765537,10,5,7,8,110
2.3853034330765537,10,5,7,8,111
2.3853034330765537,10,5,7,8,112
2.3853034330765537,10,5,7,8,113
2.3853034330765537,10,5,7,8,114
2.3853034330765537,10,5,7,8,115
2.3853034330765537,10,5,7,8,116
2.3853034330765537,10,5,7,8,117
2.3794300982650394,10,5,7,8,118
2.3794300982650394,10,5,7,8,119
2.3794300982650394,10,5,7,8,120
2.3794300982650394,10,5,7,8,121
2.3794300982650394,10,5,7,8,122
2.3794300982650394,10,5,7,8,123
2.3794300982650394,10,5,7,8,124
2.3794300982650394,10,5,7,8,125
2.373583364055965,10,5,7,8,126
2.373583364055965,10,5,7,8,127
2.373583364055965,10,5,7,8,128
2.373583364055965,10,5,7,8,129
2.373583364055965,10,5,7,8,130
2.373583364055965,10,5,7,8,131
2.373583364055965,10,5,7,8,132
2.373583364055965,10,5,7,8,133
2.367763067923892,10,5,7,8,134
2.367763067923892,10,5,7,8,135
2.367763067923892,10,5,7,8,136
2.367763067923892,10,5,7,8,137
2.367763067923892,10,5,7,8,138
2.367763067923892,10,5,7,8,139
2.367763067923892,10,5,7,8,140
2.367763067923892,10,5,7,8,141
2.3619690484683935,10,5,7,8,142
2.3619690484683935,10,5,7,8,143
2.3619690484683935,10,5,7,8,144
2.3619690484683935,10,5,7,8,145
2.3619690484683935,10,5,7,8,146
2.3619690484683935,10,5,7,8,147
2.3619690484683935,10,5,7,8,148
2.3619690484683935,10,5,7,8,149
2.3562011454072658,10,5,7,8,150
2.3562011454072658,10,5,7,8,151
2.3562011454072658,10,5,7,8,152
2.3562011454072658,10,5,7,8,153
2.3562011454072658,10,5,7,8,154
2.3562011454072658,10,5,7,8,155
2.3562011454072658,10,5,7,8,156
2.3562011454072658,10,5,7,8,157
2.350459199569712,10,5,7,8,158
2.350459199569712,10,5,7,8,159
2.350459199569712,10,5,7,8,160
2.350459199569712,10,5,7,8,161
2.350459199569712,10,5,7,8,162
2.350459199569712,10,5,7,8,163
2.350459199569712,10,5,7,8,164
2.350459199569712,10,5,7,8,165
2.3447430528895317,10,5,7,8,166
2.3447430528895317,10,5,7,8,167
2.3447430528895317,10,5,7,8,168
2.3447430528895317,10,5,7,8,169
2.3447430528895317,10,5,7,8,170
2.3447430528895317,10,5,7,8,171
2.3447430528895317,10,5,7,8,172
2.3447430528895317,10,5,7,8,173
2.3390525483982954,10,5,7,8,174
2.3390525483982954,10,5,7,8,175
2.3390525483982954,10,5,7,8,176
2.3390525483982954,10,5,7,8,177
2.3390525483982954,10,5,7,8,178
2.3390525483982954,10,5,7,8,179
2.3390525483982954,10,5,7,8,180
2.3390525483982954,10,5,7,8,181
2.3333875302185167,10,5,7,8,182
2.3333875302185167,10,5,7,8,183
2.3333875302185167,10,5,7,8,184
2.3333875302185167,10,5,7,8,185
2.3333875302185167,10,5,7,8,186
2.3333875302185167,10,5,7,8,187
2.3333875302185167,10,5,7,8,188
2.3333875302185167,10,5,7,8,189
2.3277478435568217,10,5,7,8,190
2.3277478435568217,10,5,7,8,191
2.3277478435568217,10,5,7,8,192
2.3277478435568217,10,5,7,8,193
2.3277478435568217,10,5,7,8,194
2.3277478435568217,10,5,7,8,195
2.3277478435568217,10,5,7,8,196
2.3277478435568217,10,5,7,8,197
2.3221333346971154,10,5,7,8,198
2.3221333346971154,10,5,7,8,199
2.3221333346971154,10,5,7,8,200
2.3221333346971154,10,5,7,8,201
2.3221333346971154,10,5,7,8,202
2.3221333346971154,10,5,7,8,203
2.3221333346971154,10,5,7,8,204
2.3221333346971154,10,5,7,8,205
2.316543850993752,10,5,7,8,206
2.316543850993752,10,5,7,8,207
2.316543850993752,10,5,7,8,208
2.316543850993752,10,5,7,8,209
2.316543850993752,10,5,7,8,210
2.316543850993752,10,5,7,8,211
2.316543850993752,10,5,7,8,212
2.316543850993752,10,5,7,8,213
2.3109792408647016,10,5,7,8,214
2.3109792408647016,10,5,7,8,215
2.3109792408647016,10,5,7,8,216
2.3109792408647016,10,5,7,8,217
2.3109792408647016,10,5,7,8,218
2.3109792408647016,10,5,7,8,219
2.3109792408647016,10,5,7,8,220
2.3109792408647016,10,5,7,8,221
2.305439353784725,10,5,7,8,222
2.305439353784725,10,5,7,8,223
2.305439353784725,10,5,7,8,224
2.305439353784725,10,5,7,8,225
2.305439353784725,10,5,7,8,226
2.305439353784725,10,5,7,8,227
2.305439353784725,10,5,7,8,228
2.305439353784725,10,5,7,8,229
2.2999240402785532,10,5,7,8,230
2.2999240402785532,10,5,7,8,231
2.2999240402785532,10,5,7,8,232
2.2999240402785532,10,5,7,8,233
2.2999240402785532,10,5,7,8,234
2.2999240402785532,10,5,7,8,235
2.2999240402785532,10,5,7,8,236
2.2999240402785532,10,5,7,8,237
2.29443315191407,10,5,7,8,238
2.29443315191407,10,5,7,8,239
2.29443315191407,10,5,7,8,240
2.29443315191407,10,5,7,8,241
2.29443315191407,10,5,7,8,242
2.29443315191407,10,5,7,8,243
2.29443315191407,10,5,7,8,244
2.29443315191407,10,5,7,8,245
2.2889665412955065,10,5,7,8,246
2.2889665412955065,10,5,7,8,247
2.2889665412955065,10,5,7,8,248
2.2889665412955065,10,5,7,8,249
2.2889665412955065,10,5,7,8,250
2.2889665412955065,10,5,7,8,251
2.2889665412955065,10,5,7,8,252
2.2889665412955065,10,5,7,8,253
2.283524062056641,10,5,7,8,254
2.283524062056641,10,5,7,8,255
2.283524062056641,10,5,7,8,0
2.283524062056641,10,5,7,8,1
2.283524062056641,10,5,7,8,2
2.283524062056641,10,5,7,8,3
2.283524062056641,10,5,7,8,4
2.283524062056641,10,5,7,8,5
2.2781055688540146,10,5,7,8,6
2.2781055688540146,10,5,7,8,7
2.2781055688540146,10,5,7,8,8
2.2781055688540146,10,5,7,8,9
2.2781055688540146,10,5,7,8,10
