BIOZ1_MAG,BIOZ1_PHASE,EXC_FREQ_KHZ,EXC_PIN,GND_PIN,SNS_AP_PIN,SNS_AN_PIN,PACKET_NUMBER
2.366822,-0.341353,100,15,7,2,3,89
2.366119,-0.413442,100,15,7,3,4,91
2.362337,-0.452393,100,15,7,4,5,95
3.943404,-0.413342,100,15,7,5,6,99
3.665924,2.732801,100,15,7,8,9,103
2.454943,2.650729,100,15,7,9,10,107
1.947478,2.71721,100,15,7,10,11,111
2.225099,2.711269,100,15,7,11,12,115
3.105975,2.624848,100,15,7,12,13,119
5.761447,2.749966,100,15,7,13,14,123
4.9154,-0.415552,100,16,8,1,2,127
2.975742,-0.378651,100,16,8,2,3,131
2.506919,-0.398156,100,16,8,3,4,135
2.088083,-0.405627,100,16,8,4,5,139
2.607419,-0.36526,100,16,8,5,6,143
3.942363,-0.413208,100,16,8,6,7,147
3.845344,2.6336,100,16,8,9,10,151
2.087949,2.736165,100,16,8,10,11,155
1.851844,2.669597,100,16,8,11,12,159
2.088157,2.603061,100,16,8,12,13,163
3.334712,2.697268,100,16,8,13,14,167
6.487402,2.712428,100,16,8,14,15,171
4.368717,-0.387229,100,1,9,2,3,175
2.876991,-0.407604,100,1,9,3,4,179
2.132057,-0.42848,100,1,9,4,5,183
2.240025,-0.347676,100,1,9,5,6,187
2.692175,-0.403174,100,1,9,6,7,191
4.220276,-0.417141,100,1,9,7,8,195
3.339232,2.72506,100,1,9,10,11,199
2.084321,2.69178,100,1,9,11,12,203
1.811301,2.59279,100,1,9,12,13,207
2.362102,2.689167,100,1,9,13,14,211
4.261234,2.691298,100,1,9,14,15,215
4.89934,2.792745,100,1,9,15,16,219
4.276015,-0.385424,100,2,10,3,4,223
2.457779,-0.415652,100,2,10,4,5,227
2.239651,-0.34784,100,2,10,5,6,231
2.230209,-0.388922,100,2,10,6,7,235
2.649096,-0.3846,100,2,10,7,8,239
3.856601,-0.387825,100,2,10,8,9,243
3.612759,2.695165,100,2,10,11,12,247
2.137939,2.582791,100,2,10,12,13,251
2.084113,2.691748,100,2,10,13,14,255
3.380378,2.683227,100,2,10,14,15,3
3.529916,2.748314,100,2,10,15,16,7
3.622836,2.746134,100,3,11,1,2,11
3.894043,-0.424679,100,3,11,4,5,15
2.741711,-0.387619,100,3,11,5,6,19
2.322275,-0.392265,100,3,11,6,7,23
2.280589,-0.370374,100,3,11,7,8,27
2.567164,-0.345471,100,3,11,8,9,31
4.353392,-0.493336,100,3,11,9,10,35
3.523838,2.616947,100,3,11,12,13,39
2.26928,2.689935,100,3,11,13,14,43
3.195187,2.655038,100,3,11,14,15,47
3.203229,2.741867,100,3,11,15,16,51
2.08774,2.736133,100,4,12,1,2,55
3.474291,2.709511,100,4,12,2,3,59
4.45953,-0.388986,100,4,12,5,6,63
2.699321,-0.369046,100,4,12,6,7,67
2.322044,-0.392298,100,4,12,7,8,71
2.161441,-0.299937,100,4,12,8,9,75
2.779121,-0.505449,100,4,12,9,10,79
3.784027,-0.337051,100,4,12,10,11,83
3.610735,2.669565,100,4,12,13,14,87
3.472169,2.656232,100,4,12,14,15,91
3.338234,2.724964,100,4,12,15,16,95
1.854157,2.719555,100,5,13,1,2,99
2.137726,2.756236,100,5,13,2,3,103
3.906595,2.764449,100,5,13,3,4,107
4.219435,-0.417205,100,5,13,6,7,111
2.649096,-0.3846,100,5,13,7,8,115
2.161656,-0.299904,100,5,13,8,9,119
2.365258,-0.530851,100,5,13,9,10,123
2.527275,-0.324917,100,5,13,10,11,127
4.268426,-0.40697,100,5,13,11,12,131
4.815839,2.650269,100,5,13,14,15,135
4.13321,2.747987,100,5,13,15,16,139
2.132407,2.712945,100,6,14,1,2,143
1.861877,2.768964,100,6,14,2,3,147
2.273583,2.730643,100,6,14,3,4,151
3.335484,2.697233,100,6,14,4,5,155
4.079614,-0.426575,100,6,14,7,8,159
2.528112,-0.32492,100,6,14,8,9,163
2.409975,-0.510441,100,6,14,9,10,167
2.253684,-0.306949,100,6,14,10,11,171
2.877371,-0.407671,100,6,14,11,12,175
4.772254,-0.44298,100,6,14,12,13,179
6.309446,2.72825,100,6,14,15,16,183
3.142283,2.697929,100,7,15,1,2,187
2.219567,2.710463,100,7,15,2,3,191
2.126894,2.712108,100,7,15,3,4,195
2.177153,2.732426,100,7,15,4,5,199
3.624398,2.746164,100,7,15,5,6,203
3.776182,-0.361511,100,7,15,8,9,207
2.644716,-0.524751,100,7,15,9,10,211
2.072204,-0.292415,100,7,15,10,11,215
2.324122,-0.392338,100,7,15,11,12,219
3.196987,-0.486593,100,7,15,12,13,223
5.936531,-0.42526,100,7,15,13,14,227
4.762247,2.717297,100,8,16,1,2,231
2.863223,2.668792,100,8,16,2,3,235
2.315882,2.709247,100,8,16,3,4,239
1.992193,2.692778,100,8,16,4,5,243
2.415628,2.746299,100,8,16,5,6,247
3.895334,2.716911,100,8,16,6,7,251
4.076207,-0.472265,100,8,16,9,10,255
2.216328,-0.282999,100,8,16,10,11,3
2.046238,-0.381538,100,8,16,11,12,7
2.315721,-0.472198,100,8,16,12,13,11
3.43216,-0.418097,100,8,16,13,14,15
6.723195,-0.42386,100,8,16,14,15,19
4.168092,2.691848,100,9,1,2,3,23
2.686856,2.703966,100,9,1,3,4,27
1.991399,2.692649,100,9,1,4,5,31
2.087875,2.735934,100,9,1,5,6,35
2.457289,2.725877,100,9,1,6,7,39
4.033863,2.726741,100,9,1,7,8,43
3.432323,-0.296025,100,9,1,10,11,47
2.239428,-0.347872,100,9,1,11,12,51
1.991136,-0.448876,100,9,1,12,13,55
2.556613,-0.381468,100,9,1,13,14,59
4.317425,-0.397,100,9,1,14,15,63
5.19208,-0.418508,100,9,1,15,16,67
4.121738,2.703327,100,10,2,3,4,71
2.361008,2.689237,100,10,2,4,5,75
2.087465,2.7362,100,10,2,5,6,79
2.175905,2.690905,100,10,2,6,7,83
2.500955,2.70652,100,10,2,7,8,87
3.679949,2.782935,100,10,2,8,9,91
3.762957,-0.385987,100,10,2,11,12,95
2.268303,-0.451687,100,10,2,12,13,99
2.279834,-0.370371,100,10,2,13,14,103
3.486602,-0.378997,100,10,2,14,15,107
3.578429,-0.381433,100,10,2,15,16,111
3.620924,-0.395189,100,11,3,1,2,115
3.707455,2.619674,100,11,3,4,5,119
2.501204,2.706553,100,11,3,5,6,123
2.175975,2.690806,100,11,3,6,7,127
2.175975,2.690806,100,11,3,7,8,131
2.397106,2.844205,100,11,3,8,9,135
3.981747,2.646281,100,11,3,9,10,139
3.61476,-0.420855,100,11,3,12,13,143
2.474508,-0.340745,100,11,3,13,14,147
3.261172,-0.358268,100,11,3,14,15,151
3.210187,-0.370957,100,11,3,15,16,155
2.27215,-0.411044,100,12,4,1,2,159
3.566197,-0.433283,100,12,4,2,3,163
4.350098,2.669468,100,12,4,5,6,167
2.5932,2.705167,100,12,4,6,7,171
2.175325,2.690709,100,12,4,7,8,175
2.016134,2.830843,100,12,4,8,9,179
2.50559,2.595497,100,12,4,9,10,183
3.812404,2.766689,100,12,4,10,11,187
3.762086,-0.385951,100,12,4,13,14,191
3.536533,-0.367248,100,12,4,14,15,195
3.403846,-0.349456,100,12,4,15,16,199
2.038588,-0.426769,100,13,5,1,2,203
2.27968,-0.370503,100,13,5,2,3,207
3.989949,-0.402438,100,13,5,3,4,211
3.984448,2.716078,100,13,5,6,7,215
2.545862,2.68778,100,13,5,7,8,219
2.055266,2.805028,100,13,5,8,9,223
2.199259,2.521651,100,13,5,9,10,227
2.556021,2.76016,100,13,5,10,11,231
4.125616,2.725621,100,13,5,11,12,235
4.969688,-0.388178,100,13,5,14,15,239
4.181826,-0.383437,100,13,5,15,16,243
2.267857,-0.411656,100,14,6,1,2,247
2.004145,-0.356236,100,14,6,2,3,251
2.41499,-0.395159,100,14,6,3,4,255
3.56557,-0.459077,100,14,6,4,5,3
3.890613,2.693235,100,14,6,7,8,7
2.372497,2.767224,100,14,6,8,9,11
2.199988,2.521648,100,14,6,9,10,15
2.137795,2.756136,100,14,6,10,11,19
2.741164,2.753909,100,14,6,11,12,23
4.585108,2.699759,100,14,6,12,13,27
6.605473,-0.373854,100,14,6,15,16,31
3.212427,-0.370731,100,15,7,1,2,35
2.373207,-0.374272,100,15,7,2,3,39
2.230798,-0.389057,100,15,7,3,4,43
2.32297,-0.392168,100,15,7,4,5,47
3.943924,-0.41341,100,15,7,5,6,51
3.665924,2.732801,100,15,7,8,9,55
2.384027,2.533192,100,15,7,9,10,59
2.005009,2.785386,100,15,7,10,11,63
2.181067,2.733338,100,15,7,11,12,67
3.105975,2.624848,100,15,7,12,13,71
5.711719,2.742535,100,15,7,13,14,75
4.921501,-0.396766,100,16,8,1,2,79
2.883666,-0.375753,100,16,8,2,3,83
2.423448,-0.357219,100,16,8,3,4,87
2.131982,-0.428712,100,16,8,4,5,91
2.64901,-0.3845,100,16,8,5,6,95
4.040776,-0.391709,100,16,8,6,7,99
3.713969,2.594837,100,16,8,9,10,103
2.137587,2.756435,100,16,8,10,11,107
1.854157,2.719555,100,16,8,11,12,111
2.087949,2.603029,100,16,8,12,13,115
3.382467,2.71067,100,16,8,13,14,119
6.455484,2.748469,100,16,8,14,15,123
4.269553,-0.407105,100,1,9,2,3,127
2.751264,-0.353939,100,1,9,3,4,131
2.088432,-0.405463,100,1,9,4,5,135
2.280743,-0.370242,100,1,9,5,6,139
2.649624,-0.384535,100,1,9,6,7,143
4.216209,-0.439076,100,1,9,7,8,147
3.339565,2.725093,100,1,9,10,11,151
2.039604,2.714985,100,1,9,11,12,155
1.811482,2.592822,100,1,9,12,13,159
2.409735,2.708005,100,1,9,13,14,163
4.269277,2.734687,100,1,9,14,15,167
4.980943,2.772006,100,1,9,15,16,171
4.183347,-0.383539,100,2,10,3,4,175
2.464747,-0.378134,100,2,10,4,5,179
2.331719,-0.352634,100,2,10,5,6,183
2.239802,-0.347708,100,2,10,6,7,187
2.599529,-0.400756,100,2,10,7,8,191
3.906984,-0.377111,100,2,10,8,9,195
3.472861,2.682962,100,2,10,11,12,199
2.088224,2.602961,100,2,10,12,13,203
2.129901,2.66953,100,2,10,13,14,207
3.345314,2.752671,100,2,10,14,15,211
3.497579,2.788959,100,2,10,15,16,215
3.446438,2.77712,100,3,11,1,2,219
3.893918,-0.42458,100,3,11,4,5,223
2.699946,-0.369081,100,3,11,5,6,227
2.280589,-0.370374,100,3,11,6,7,231
2.273056,-0.410915,100,3,11,7,8,235
2.566908,-0.345503,100,3,11,8,9,239
4.260809,-0.493799,100,3,11,9,10,243
3.475442,2.629551,100,3,11,12,13,247
2.31511,2.66953,100,3,11,13,14,251
3.061552,2.730062,100,3,11,14,15,255
3.130111,2.803059,100,3,11,15,16,3
2.08774,2.736133,100,4,12,1,2,7
3.571951,2.734409,100,4,12,2,3,11
4.50956,-0.379509,100,4,12,5,6,15
2.741076,-0.387584,100,4,12,6,7,19
2.321969,-0.392198,100,4,12,7,8,23
2.161371,-0.299837,100,4,12,8,9,27
2.779031,-0.505349,100,4,12,9,10,31
3.906079,-0.377076,100,4,12,10,11,35
3.610735,2.669565,100,4,12,13,14,39
3.334272,2.697335,100,4,12,14,15,43
3.302737,2.767739,100,4,12,15,16,47
1.854157,2.719555,100,5,13,1,2,51
2.224212,2.71114,100,5,13,2,3,55
3.948617,2.751665,100,5,13,3,4,59
4.100409,-0.358944,100,5,13,6,7,63
2.642615,-0.419512,100,5,13,7,8,67
2.161656,-0.299904,100,5,13,8,9,71
2.365258,-0.530851,100,5,13,9,10,75
2.527356,-0.325017,100,5,13,10,11,79
4.268289,-0.40687,100,5,13,11,12,83
4.723109,2.689202,100,5,13,14,15,87
4.13321,2.747987,100,5,13,15,16,91
2.088432,2.73613,100,6,14,1,2,95
1.947473,2.716878,100,6,14,2,3,99
2.281117,2.771183,100,6,14,3,4,103
3.33934,2.724961,100,6,14,4,5,107
3.987218,-0.42562,100,6,14,7,8,111
2.52786,-0.324952,100,6,14,8,9,115
2.409975,-0.510441,100,6,14,9,10,119
2.216256,-0.282899,100,6,14,10,11,123
2.921021,-0.424515,100,6,14,11,12,127
4.72755,-0.432903,100,6,14,12,13,131
6.450977,2.734152,100,6,14,15,16,135
3.00555,2.714647,100,7,15,1,2,139
2.264089,2.689194,100,7,15,2,3,143
2.040881,2.759317,100,7,15,3,4,147
2.17672,2.732362,100,7,15,4,5,151
3.674759,2.757801,100,7,15,5,6,155
3.776182,-0.361511,100,7,15,8,9,159
2.596381,-0.507867,100,7,15,9,10,163
2.035618,-0.265944,100,7,15,10,11,167
2.367139,-0.413413,100,7,15,11,12,171
3.196987,-0.486593,100,7,15,12,13,175
5.980836,-0.433361,100,7,15,13,14,179
4.711838,2.688429,100,8,16,1,2,183
2.864428,2.701006,100,8,16,2,3,187
2.271318,2.73032,100,8,16,3,4,191
1.947541,2.71711,100,8,16,4,5,195
2.465975,2.76362,100,8,16,5,6,199
3.944052,2.728083,100,8,16,6,7,203
3.937518,-0.460501,100,8,16,9,10,207
2.180224,-0.258137,100,8,16,10,11,211
2.046238,-0.381538,100,8,16,11,12,215
2.269879,-0.492603,100,8,16,12,13,219
3.438403,-0.391194,100,8,16,13,14,223
6.500329,-0.400791,100,8,16,14,15,227
4.260671,2.691365,100,9,1,2,3,231
2.6427,2.721981,100,9,1,3,4,235
1.991399,2.692649,100,9,1,4,5,239
2.087875,2.735934,100,9,1,5,6,243
2.50675,2.743304,100,9,1,6,7,247
3.985628,2.715844,100,9,1,7,8,251
3.456585,-0.337938,100,9,1,10,11,255
2.280134,-0.370439,100,9,1,11,12,3
1.991136,-0.448876,100,9,1,12,13,7
2.506669,-0.398189,100,9,1,13,14,11
4.317285,-0.396901,100,9,1,14,15,15
5.155216,-0.391124,100,9,1,15,16,19
4.074164,2.692355,100,10,2,3,4,23
2.361008,2.689237,100,10,2,4,5,27
2.087257,2.736168,100,10,2,5,6,31
2.087325,2.736068,100,10,2,6,7,35
2.500955,2.70652,100,10,2,7,8,39
3.639563,2.79701,100,10,2,8,9,43
3.713099,-0.397332,100,10,2,11,12,47
2.268303,-0.451687,100,10,2,12,13,51
2.279607,-0.370404,100,10,2,13,14,55
3.444843,-0.364403,100,10,2,14,15,59
3.629315,-0.369854,100,10,2,15,16,63
3.707455,-0.422002,100,11,3,1,2,67
3.703987,2.644637,100,11,3,4,5,71
2.501124,2.706652,100,11,3,5,6,75
2.179839,2.733375,100,11,3,6,7,79
2.175975,2.690806,100,11,3,7,8,83
2.396867,2.844172,100,11,3,8,9,87
4.211939,2.658512,100,11,3,9,10,91
3.61476,-0.420855,100,11,3,12,13,95
2.422886,-0.357184,100,11,3,13,14,99
3.261172,-0.358268,100,11,3,14,15,103
3.261172,-0.358268,100,11,3,15,16,107
2.229098,-0.389083,100,12,4,1,2,111
3.62032,-0.395353,100,12,4,2,3,115
4.257543,2.669468,100,12,4,5,6,119
2.641477,2.722051,100,12,4,6,7,123
2.175541,2.690741,100,12,4,7,8,127
2.016134,2.830843,100,12,4,8,9,131
2.733908,2.618664,100,12,4,9,10,135
3.771557,2.780125,100,12,4,10,11,139
3.720676,-0.372456,100,12,4,13,14,143
3.547416,-0.341297,100,12,4,14,15,147
3.455673,-0.337803,100,12,4,15,16,151
2.003611,-0.356433,100,13,5,1,2,155
2.408457,-0.43365,100,13,5,2,3,159
4.082294,-0.404016,100,13,5,3,4,163
3.984577,2.715978,100,13,5,6,7,167
2.545945,2.68768,100,13,5,7,8,171
2.016335,2.830875,100,13,5,8,9,175
2.321506,2.58967,100,13,5,9,10,179
2.422645,2.784377,100,13,5,10,11,183
4.125616,2.725621,100,13,5,11,12,187
4.927702,-0.378031,100,13,5,14,15,191
4.283047,-0.363822,100,13,5,15,16,195
2.275599,-0.371083,100,14,6,1,2,199
2.087949,-0.405427,100,14,6,2,3,203
2.41499,-0.395159,100,14,6,3,4,207
3.520185,-0.445753,100,14,6,4,5,211
3.88951,2.66943,100,14,6,7,8,215
2.331562,2.788827,100,14,6,8,9,219
2.322275,2.589667,100,14,6,9,10,223
2.055946,2.805025,100,14,6,10,11,227
2.824251,2.685857,100,14,6,11,12,231
4.677803,2.69906,100,14,6,12,13,235
6.564141,-0.366143,100,14,6,15,16,239
3.296806,-0.401528,100,15,7,1,2,243
2.458514,-0.415555,100,15,7,2,3,247
2.27373,-0.411149,100,15,7,3,4,251
2.32297,-0.392168,100,15,7,4,5,255
3.943924,-0.41341,100,15,7,5,6,3
3.709543,2.719553,100,15,7,8,9,7
2.557887,2.578967,100,15,7,9,10,11
1.873368,2.818516,100,15,7,10,11,15
2.224878,2.711237,100,15,7,11,12,19
3.105975,2.624848,100,15,7,12,13,23
5.804102,2.741371,100,15,7,13,14,27
4.929334,-0.378034,100,16,8,1,2,31
2.975838,-0.37875,100,16,8,2,3,35
2.464588,-0.377934,100,16,8,3,4,39
2.137795,-0.385457,100,16,8,4,5,43
2.64901,-0.3845,100,16,8,5,6,47
3.957165,-0.366506,100,16,8,6,7,51
3.941843,2.610941,100,16,8,9,10,55
2.05588,2.805125,100,16,8,10,11,59
1.898704,2.693982,100,16,8,11,12,63
2.087949,2.603029,100,16,8,12,13,67
3.338566,2.724996,100,16,8,13,14,71
6.541244,2.733241,100,16,8,14,15,75
4.318564,-0.397135,100,1,9,2,3,79
2.792266,-0.372362,100,1,9,3,4,83
2.138152,-0.385292,100,1,9,4,5,87
2.280816,-0.370342,100,1,9,5,6,91
2.649538,-0.384436,100,1,9,6,7,95
4.220276,-0.417141,100,1,9,7,8,99
3.295926,2.739868,100,1,9,10,11,103
2.130114,2.669562,100,1,9,11,12,107
1.811301,2.59279,100,1,9,12,13,111
2.409735,2.708005,100,1,9,13,14,115
4.079207,2.714985,100,1,9,14,15,119
4.972486,2.753377,100,1,9,15,16,123
4.275877,-0.385325,100,2,10,3,4,127
2.423448,-0.357219,100,2,10,4,5,131
2.280589,-0.370374,100,2,10,5,6,135
2.239578,-0.34774,100,2,10,6,7,139
2.691907,-0.403207,100,2,10,7,8,143
3.906595,-0.377144,100,2,10,8,9,147
3.612642,2.695265,100,2,10,11,12,151
2.088224,2.602961,100,2,10,12,13,155
2.129689,2.669497,100,2,10,13,14,159
3.242477,2.698093,100,2,10,14,15,163
3.446327,2.77722,100,2,10,15,16,167
3.622358,2.746202,100,3,11,1,2,171
3.893918,-0.42458,100,3,11,4,5,175
2.7918,-0.372526,100,3,11,5,6,179
2.291842,-0.330166,100,3,11,6,7,183
2.365494,-0.413307,100,3,11,7,8,187
2.567164,-0.345471,100,3,11,8,9,191
4.213755,-0.483052,100,3,11,9,10,195
3.523838,2.616947,100,3,11,12,13,199
2.31511,2.66953,100,3,11,13,14,203
3.195187,2.684021,100,3,11,14,15,207
3.119133,2.77363,100,3,11,15,16,211
2.08774,2.736133,100,4,12,1,2,215
3.394888,2.765063,100,4,12,2,3,219
4.45953,-0.388986,100,4,12,5,6,223
2.741076,-0.387584,100,4,12,6,7,227
2.365023,-0.413372,100,4,12,7,8,231
2.199769,-0.324278,100,4,12,8,9,235
2.731678,-0.45518,100,4,12,9,10,239
3.864715,-0.364016,100,4,12,10,11,243
3.65732,2.682222,100,4,12,13,14,247
3.518266,2.669465,100,4,12,14,15,251
3.302737,2.767739,100,4,12,15,16,255
1.854157,2.719555,100,5,13,1,2,3
2.180415,2.733241,100,5,13,2,3,7
3.906595,2.764449,100,5,13,3,4,11
4.100409,-0.358944,100,5,13,6,7,15
2.642615,-0.419512,100,5,13,7,8,19
2.161656,-0.299904,100,5,13,8,9,23
2.316656,-0.432017,100,5,13,9,10,27
2.566908,-0.345503,100,5,13,10,11,31
4.215369,-0.43914,100,5,13,11,12,35
4.774267,2.718003,100,5,13,14,15,39
4.040907,2.749784,100,5,13,15,16,43
2.132338,2.713045,100,6,14,1,2,47
1.854951,2.719254,100,6,14,2,3,51
2.322813,2.749292,100,6,14,3,4,55
3.431818,2.723464,100,6,14,4,5,59
4.085,-0.404022,100,6,14,7,8,63
2.567502,-0.345538,100,6,14,8,9,67
2.365966,-0.413243,100,6,14,9,10,71
2.292373,-0.330201,100,6,14,10,11,75
2.877371,-0.407671,100,6,14,11,12,79
4.724827,-0.452493,100,6,14,12,13,83
6.401914,2.727401,100,6,14,15,16,87
3.142595,2.697961,100,7,15,1,2,91
2.219495,2.710563,100,7,15,2,3,95
2.175211,2.732468,100,7,15,3,4,99
2.177804,2.732523,100,7,15,4,5,103
3.674759,2.757801,100,7,15,5,6,107
3.776182,-0.361511,100,7,15,8,9,111
2.596381,-0.436469,100,7,15,9,10,115
2.018671,-0.310893,100,7,15,10,11,119
2.324122,-0.392338,100,7,15,11,12,123
3.197409,-0.48666,100,7,15,12,13,127
6.029088,-0.42598,100,7,15,13,14,131
4.718924,2.727679,100,8,16,1,2,135
2.7724,2.702113,100,8,16,2,3,139
2.314498,2.709054,100,8,16,3,4,143
1.996496,2.739181,100,8,16,4,5,147
2.415628,2.746299,100,8,16,5,6,151
3.858253,2.753466,100,8,16,6,7,155
3.939304,-0.437018,100,8,16,9,10,159
2.200788,-0.324348,100,8,16,10,11,163
1.996361,-0.402543,100,8,16,11,12,167
2.315646,-0.472098,100,8,16,12,13,171
3.438403,-0.391194,100,8,16,13,14,175
6.630679,-0.423186,100,8,16,14,15,179
4.075514,2.692353,100,9,1,2,3,183
2.642615,2.72208,100,9,1,3,4,187
1.991399,2.692649,100,9,1,4,5,191
2.083765,2.691584,100,9,1,5,6,195
2.474914,2.800681,100,9,1,6,7,199
4.040232,2.74962,100,9,1,7,8,203
3.456585,-0.337938,100,9,1,10,11,207
2.229765,-0.388986,100,9,1,11,12,211
1.991136,-0.448876,100,9,1,12,13,215
2.515204,-0.36147,100,9,1,13,14,219
4.32522,-0.375554,100,9,1,14,15,223
5.062942,-0.389646,100,9,1,15,16,227
4.07745,2.714956,100,10,2,3,4,231
2.315963,2.709479,100,10,2,4,5,235
2.087325,2.736068,100,10,2,5,6,239
2.095727,2.78019,100,10,2,6,7,243
2.506089,2.743439,100,10,2,7,8,247
3.691691,2.807751,100,10,2,8,9,251
3.712979,-0.397233,100,10,2,11,12,255
2.315963,-0.432114,100,10,2,12,13,3
2.279607,-0.370404,100,10,2,13,14,7
3.496072,-0.352664,100,10,2,14,15,11
3.721418,-0.372392,100,10,2,15,16,15
3.663861,-0.408754,100,11,3,1,2,19
3.749401,2.681977,100,11,3,4,5,23
2.501124,2.706652,100,11,3,5,6,27
2.223626,2.711275,100,11,3,6,7,31
2.131207,2.712983,100,11,3,7,8,35
2.34378,2.828188,100,11,3,8,9,39
4.074022,2.646677,100,11,3,9,10,43
3.614876,-0.420955,100,11,3,12,13,47
2.464096,-0.377999,100,11,3,13,14,51
3.261172,-0.358268,100,11,3,14,15,55
3.302301,-0.373786,100,11,3,15,16,59
2.271924,-0.411076,100,12,4,1,2,63
3.658569,-0.434168,100,12,4,2,3,67
4.164988,2.669468,100,12,4,5,6,71
2.690479,2.738324,100,12,4,6,7,75
2.175541,2.690741,100,12,4,7,8,79
2.054856,2.804963,100,12,4,8,9,83
2.463605,2.763529,100,12,4,9,10,87
3.679582,2.782903,100,12,4,10,11,91
3.679582,-0.35869,100,12,4,13,14,95
3.628592,-0.369918,100,12,4,14,15,99
3.444499,-0.364435,100,12,4,15,16,103
2.038791,-0.426737,100,13,5,1,2,107
2.279607,-0.370404,100,13,5,2,3,111
4.082294,-0.404016,100,13,5,3,4,115
3.947309,2.751668,100,13,5,6,7,119
2.453396,2.688366,100,13,5,7,8,123
2.016335,2.830875,100,13,5,8,9,127
2.179693,2.733243,100,13,5,9,10,131
2.382525,2.805903,100,13,5,10,11,135
4.218038,2.72439,100,13,5,11,12,139
4.856771,-0.338282,100,13,5,14,15,143
4.283047,-0.363822,100,13,5,15,16,147
2.31735,-0.392842,100,14,6,1,2,151
2.017138,-0.310588,100,14,6,2,3,155
2.415068,-0.395259,100,14,6,3,4,159
3.475442,-0.432084,100,14,6,4,5,163
3.936086,2.681194,100,14,6,7,8,167
2.383391,2.8058,100,14,6,8,9,171
2.13177,2.712849,100,14,6,9,10,175
2.096212,2.780155,100,14,6,10,11,179
2.734902,2.720169,100,14,6,11,12,183
4.633461,2.709476,100,14,6,12,13,187
6.615859,-0.359892,100,14,6,15,16,191
3.212211,-0.370863,100,15,7,1,2,195
2.332259,-0.352669,100,15,7,2,3,199
2.225093,-0.430655,100,15,7,3,4,203
2.281044,-0.37031,100,15,7,4,5,207
3.900712,-0.400858,100,15,7,5,6,211
3.709543,2.719553,100,15,7,8,9,215
2.317654,2.709605,100,15,7,9,10,219
1.913027,2.790979,100,15,7,10,11,223
2.225099,2.711269,100,15,7,11,12,227
3.106284,2.62488,100,15,7,12,13,231
5.847179,2.732901,100,15,7,13,14,235
5.00785,-0.416597,100,16,8,1,2,239
2.976134,-0.378718,100,16,8,2,3,243
2.414587,-0.395323,100,16,8,3,4,247
2.09628,-0.361538,100,16,8,4,5,251
2.607419,-0.36526,100,16,8,5,6,255
3.957037,-0.366407,100,16,8,6,7,3
3.705094,2.644734,100,16,8,9,10,7
2.045362,2.760357,100,16,8,10,11,11
1.851844,2.669597,100,16,8,11,12,15
2.045494,2.578837,100,16,8,12,13,19
3.295163,2.739903,100,16,8,13,14,23
6.44884,2.734155,100,16,8,14,15,27
4.318855,-0.397003,100,1,9,2,3,31
2.741895,-0.387487,100,1,9,3,4,35
2.09663,-0.361374,100,1,9,4,5,39
2.280816,-0.370342,100,1,9,5,6,43
2.619509,-0.330134,100,1,9,6,7,47
4.176864,-0.405463,100,1,9,7,8,51
3.21157,2.770665,100,1,9,10,11,55
2.130114,2.669562,100,1,9,11,12,59
1.769381,2.564685,100,1,9,12,13,63
2.409813,2.707905,100,1,9,13,14,67
4.127939,2.725583,100,1,9,14,15,71
4.930476,2.763523,100,1,9,15,16,75
4.225948,-0.395291,100,2,10,3,4,79
2.372497,-0.374368,100,2,10,4,5,83
2.280589,-0.370374,100,2,10,5,6,87
2.215743,-0.282864,100,2,10,6,7,91
2.599529,-0.400756,100,2,10,7,8,95
3.906984,-0.377111,100,2,10,8,9,99
3.658049,2.682287,100,2,10,11,12,103
2.045698,2.57887,100,2,10,12,13,107
2.129901,2.66953,100,2,10,13,14,111
3.431023,2.723499,100,2,10,14,15,115
3.445984,2.777187,100,2,10,15,16,119
3.48787,2.762494,100,3,11,1,2,123
3.801039,-0.423453,100,3,11,4,5,127
2.699859,-0.368981,100,3,11,5,6,131
2.253162,-0.306914,100,3,11,6,7,135
2.230209,-0.388922,100,3,11,7,8,139
2.527608,-0.324985,100,3,11,8,9,143
4.353392,-0.45079,100,3,11,9,10,147
3.475442,2.629551,100,3,11,12,13,151
2.31511,2.66953,100,3,11,13,14,155
3.153678,2.728253,100,3,11,14,15,159
3.078313,2.790153,100,3,11,15,16,163
2.045224,2.760225,100,4,12,1,2,167
3.523135,2.722048,100,4,12,2,3,171
4.417524,-0.377673,100,4,12,5,6,175
2.710413,-0.335061,100,4,12,6,7,179
2.280134,-0.370439,100,4,12,7,8,183
2.199698,-0.324179,100,4,12,8,9,187
2.691283,-0.403171,100,4,12,9,10,191
3.967587,-0.343331,100,4,12,10,11,195
3.567148,2.708506,100,4,12,13,14,199
3.382239,2.710538,100,4,12,14,15,203
3.21061,2.770568,100,4,12,15,16,207
1.810882,2.746369,100,5,13,1,2,211
2.188265,2.775482,100,5,13,2,3,215
3.898905,2.740805,100,5,13,3,4,219
4.072609,-0.323767,100,5,13,6,7,223
2.607504,-0.36536,100,5,13,7,8,227
2.199988,-0.324246,100,5,13,8,9,231
2.322507,-0.392233,100,5,13,9,10,235
2.607504,-0.36536,100,5,13,10,11,239
4.263402,-0.428644,100,5,13,11,12,243
4.861951,2.679053,100,5,13,14,15,247
4.083647,2.737574,100,5,13,15,16,251
2.088708,2.736063,100,6,14,1,2,255
1.861877,2.768964,100,6,14,2,3,3
2.273356,2.73061,100,6,14,3,4,7
3.43216,2.723496,100,6,14,4,5,11
3.98682,-0.425652,100,6,14,7,8,15
2.528194,-0.32502,100,6,14,8,9,19
2.32297,-0.392168,100,6,14,9,10,23
2.240321,-0.347743,100,6,14,10,11,27
2.921021,-0.424515,100,6,14,11,12,31
4.724827,-0.452493,100,6,14,12,13,35
6.450768,2.734252,100,6,14,15,16,39
3.054442,2.72909,100,7,15,1,2,43
2.219567,2.710463,100,7,15,2,3,47
2.171571,2.68993,100,7,15,3,4,51
2.177587,2.732491,100,7,15,4,5,55
3.674759,2.757801,100,7,15,5,6,59
3.817583,-0.375015,100,7,15,8,9,63
2.558983,-0.381608,100,7,15,9,10,67
2.097947,-0.361611,100,7,15,10,11,71
2.41117,-0.433726,100,7,15,11,12,75
3.19709,-0.486692,100,7,15,12,13,79
5.936531,-0.42526,100,7,15,13,14,83
4.75719,2.659215,100,8,16,1,2,87
2.864428,2.701006,100,8,16,2,3,91
2.315265,2.709051,100,8,16,3,4,95
1.947735,2.717142,100,8,16,4,5,99
2.458759,2.72607,100,8,16,5,6,103
3.816318,2.766581,100,8,16,6,7,107
3.992851,-0.402643,100,8,16,9,10,111
2.201008,-0.324316,100,8,16,10,11,115
2.084664,-0.449979,100,8,16,11,12,119
2.315721,-0.472198,100,8,16,12,13,123
3.48118,-0.40553,100,8,16,13,14,127
6.771831,-0.417358,100,8,16,14,15,131
4.215653,2.702584,100,9,1,2,3,135
2.686856,2.703966,100,9,1,3,4,139
1.991399,2.692649,100,9,1,4,5,143
2.083765,2.691584,100,9,1,5,6,147
2.457534,2.725909,100,9,1,6,7,151
3.991002,2.73902,100,9,1,7,8,155
3.456929,-0.337906,100,9,1,10,11,159
2.27245,-0.411111,100,9,1,11,12,163
1.9912,-0.448976,100,9,1,12,13,167
2.556613,-0.381468,100,9,1,13,14,171
4.275025,-0.385389,100,9,1,14,15,175
5.021027,-0.379798,100,9,1,15,16,179
4.074022,2.692124,100,10,2,3,4,183
2.360849,2.689105,100,10,2,4,5,187
2.130995,2.712951,100,10,2,5,6,191
2.137231,2.756271,100,10,2,6,7,195
2.413787,2.746272,100,10,2,7,8,199
3.691572,2.807851,100,10,2,8,9,203
3.762957,-0.385987,100,10,2,11,12,207
2.315963,-0.432114,100,10,2,12,13,211
2.279607,-0.370404,100,10,2,13,14,215
3.496072,-0.352664,100,10,2,14,15,219
3.670871,-0.383584,100,10,2,15,16,223
3.70283,-0.471961,100,11,3,1,2,227
3.749401,2.681977,100,11,3,4,5,231
2.501204,2.706553,100,11,3,5,6,235
2.095727,2.78019,100,11,3,6,7,239
2.131207,2.712983,100,11,3,7,8,243
2.382762,2.805935,100,11,3,8,9,247
4.082294,2.737577,100,11,3,9,10,251
3.615236,-0.420923,100,11,3,12,13,255
2.422723,-0.357316,100,11,3,13,14,3
3.261172,-0.358268,100,11,3,14,15,7
3.39444,-0.376462,100,11,3,15,16,11
2.271851,-0.410977,100,12,4,1,2,15
3.536533,-0.367248,100,12,4,2,3,19
4.11897,2.680703,100,12,4,5,6,23
2.549054,2.723959,100,12,4,6,7,27
2.130783,2.712919,100,12,4,7,8,31
2.055061,2.804996,100,12,4,8,9,35
2.598235,2.740676,100,12,4,9,10,39
3.731023,2.793823,100,12,4,10,11,43
3.720797,-0.372556,100,12,4,13,14,47
3.547416,-0.341297,100,12,4,14,15,51
3.495724,-0.352696,100,12,4,15,16,55
2.045087,-0.3815,100,13,5,1,2,59
2.27968,-0.370503,100,13,5,2,3,63
4.077044,-0.426669,100,13,5,3,4,67
3.905301,2.764452,100,13,5,6,7,71
2.453396,2.688366,100,13,5,7,8,75
2.055266,2.805028,100,13,5,8,9,79
2.223476,2.711143,100,13,5,9,10,83
2.382525,2.805903,100,13,5,10,11,87
4.125749,2.725521,100,13,5,11,12,91
4.927702,-0.378031,100,13,5,14,15,95
4.242344,-0.351797,100,13,5,15,16,99
2.317886,-0.392878,100,14,6,1,2,103
2.004345,-0.356204,100,14,6,2,3,107
2.41499,-0.395159,100,14,6,3,4,111
3.431365,-0.418062,100,14,6,4,5,115
3.936086,2.681194,100,14,6,7,8,119
2.383391,2.8058,100,14,6,8,9,123
2.176549,2.690671,100,14,6,9,10,127
2.055808,2.804893,100,14,6,10,11,131
2.783834,2.735934,100,14,6,11,12,135
4.63361,2.709376,100,14,6,12,13,139
6.564141,-0.366143,100,14,6,15,16,143
3.336042,-0.444195,100,15,7,1,2,147
2.373283,-0.374371,100,15,7,2,3,151
2.27373,-0.411149,100,15,7,3,4,155
2.230876,-0.388825,100,15,7,4,5,159
3.858129,-0.388027,100,15,7,5,6,163
3.617038,2.720831,100,15,7,8,9,167
2.455187,2.688492,100,15,7,9,10,171
1.904035,2.742667,100,15,7,10,11,175
2.17713,2.690868,100,15,7,11,12,179
3.106075,2.624748,100,15,7,12,13,183
5.798186,2.725436,100,15,7,13,14,187
4.866912,-0.424612,100,16,8,1,2,191
2.934792,-0.361538,100,16,8,2,3,195
2.464667,-0.378034,100,16,8,3,4,199
2.09628,-0.361538,100,16,8,4,5,203
2.607419,-0.36526,100,16,8,5,6,207
3.948489,-0.389828,100,16,8,6,7,211
3.708194,2.719655,100,16,8,9,10,215
2.087881,2.736265,100,16,8,10,11,219
1.851844,2.669597,100,16,8,11,12,223
2.045428,2.578937,100,16,8,12,13,227
3.295269,2.739804,100,16,8,13,14,231
6.44884,2.734155,100,16,8,14,15,235
4.285031,-0.363892,100,1,9,2,3,239
2.784576,-0.405463,100,1,9,3,4,243
2.09663,-0.361374,100,1,9,4,5,247
2.280816,-0.370342,100,1,9,5,6,251
2.608024,-0.365295,100,1,9,6,7,255
4.176864,-0.405463,100,1,9,7,8,3
3.253363,2.755067,100,1,9,10,11,7
2.084321,2.647343,100,1,9,11,12,11
1.769438,2.564585,100,1,9,12,13,15
2.365806,2.728218,100,1,9,13,14,19
4.127939,2.725583,100,1,9,14,15,23
4.888982,2.773843,100,1,9,15,16,27
4.268852,-0.406938,100,2,10,3,4,31
2.423689,-0.357186,100,2,10,4,5,35
2.280589,-0.370374,100,2,10,5,6,39
2.280589,-0.370374,100,2,10,6,7,43
2.599529,-0.400756,100,2,10,7,8,47
3.906858,-0.377012,100,2,10,8,9,51
3.612759,2.695165,100,2,10,11,12,55
2.045698,2.57887,100,2,10,12,13,59
2.131913,2.712981,100,2,10,13,14,63
3.295269,2.739804,100,2,10,14,15,67
3.446438,2.77712,100,2,10,15,16,71
3.704296,2.66943,100,3,11,1,2,75
3.801418,-0.423421,100,3,11,4,5,79
2.699677,-0.369113,100,3,11,5,6,83
2.331719,-0.352634,100,3,11,6,7,87
2.273056,-0.410915,100,3,11,7,8,91
2.527608,-0.324985,100,3,11,8,9,95
4.127394,-0.415942,100,3,11,9,10,99
3.475442,2.629551,100,3,11,12,13,103
2.361866,2.689135,100,3,11,13,14,107
3.057043,2.699791,100,3,11,14,15,111
3.119133,2.77363,100,3,11,15,16,115
2.131488,2.712916,100,4,12,1,2,119
3.44564,2.777155,100,4,12,2,3,123
4.417524,-0.377673,100,4,12,5,6,127
2.699321,-0.369046,100,4,12,6,7,131
2.322044,-0.392298,100,4,12,7,8,135
2.199769,-0.324278,100,4,12,8,9,139
2.69137,-0.403271,100,4,12,9,10,143
3.916068,-0.353638,100,4,12,10,11,147
3.567148,2.708506,100,4,12,13,14,151
3.379704,2.683163,100,4,12,14,15,155
3.21061,2.770568,100,4,12,15,16,159
1.854217,2.719456,100,5,13,1,2,163
2.180415,2.733241,100,5,13,2,3,167
3.898905,2.740805,100,5,13,3,4,171
4.07274,-0.323867,100,5,13,6,7,175
2.649096,-0.3846,100,5,13,7,8,179
2.199988,-0.324246,100,5,13,8,9,183
2.322275,-0.392265,100,5,13,9,10,187
2.607504,-0.36536,100,5,13,10,11,191
4.263402,-0.428644,100,5,13,11,12,195
4.770674,2.698615,100,5,13,14,15,199
3.991271,2.739152,100,5,13,15,16,203
2.130182,2.669462,100,6,14,1,2,207
1.947473,2.716878,100,6,14,2,3,211
2.273356,2.73061,100,6,14,3,4,215
3.388427,2.737849,100,6,14,4,5,219
4.041843,-0.391844,100,6,14,7,8,223
2.528194,-0.32502,100,6,14,8,9,227
2.281044,-0.37031,100,6,14,9,10,231
2.240321,-0.347743,100,6,14,10,11,235
2.921021,-0.424515,100,6,14,11,12,239
4.677835,-0.462197,100,6,14,12,13,243
6.494387,2.726575,100,6,14,15,16,247
3.331144,2.613059,100,7,15,1,2,251
2.268082,2.729969,100,7,15,2,3,255
2.126894,2.712108,100,7,15,3,4,3
2.222284,2.710419,100,7,15,4,5,7
3.725239,2.769093,100,7,15,5,6,11
3.776182,-0.361511,100,7,15,8,9,15
2.558983,-0.381608,100,7,15,9,10,19
2.057648,-0.33674,100,7,15,10,11,23
2.41093,-0.433758,100,7,15,11,12,27
3.19709,-0.486692,100,7,15,12,13,31
5.936531,-0.42526,100,7,15,13,14,35
4.896389,2.650057,100,8,16,1,2,39
2.777012,2.73536,100,8,16,2,3,43
2.315265,2.709051,100,8,16,3,4,47
1.996496,2.739181,100,8,16,4,5,51
2.415706,2.746199,100,8,16,5,6,55
3.851574,2.729496,100,8,16,6,7,59
3.867141,-0.364254,100,8,16,9,10,63
2.240393,-0.347843,100,8,16,10,11,67
2.039939,-0.426775,100,8,16,11,12,71
2.315721,-0.472198,100,8,16,12,13,75
3.530848,-0.393414,100,8,16,13,14,79
6.586864,-0.41582,100,8,16,14,15,83
4.12726,2.72575,100,9,1,2,3,87
2.639454,2.68694,100,9,1,3,4,91
2.039263,2.714821,100,9,1,4,5,95
2.131557,2.712816,100,9,1,5,6,99
2.457534,2.725909,100,9,1,6,7,103
4.040232,2.74962,100,9,1,7,8,107
3.417648,-0.322668,100,9,1,10,11,111
2.27245,-0.411111,100,9,1,11,12,115
2.036891,-0.472128,100,9,1,12,13,119
2.556613,-0.381468,100,9,1,13,14,123
4.311464,-0.418416,100,9,1,14,15,127
5.021027,-0.379798,100,9,1,15,16,131
4.119514,2.680636,100,10,2,3,4,135
2.360925,2.689006,100,10,2,4,5,139
2.083283,2.691619,100,10,2,5,6,143
2.130995,2.712951,100,10,2,6,7,147
2.50617,2.74334,100,10,2,7,8,151
3.691572,2.807851,100,10,2,8,9,155
3.805414,-0.399152,100,10,2,11,12,159
2.268303,-0.451687,100,10,2,12,13,163
2.229249,-0.388951,100,10,2,13,14,167
3.486255,-0.379029,100,10,2,14,15,171
3.620681,-0.395321,100,10,2,15,16,175
3.566793,-0.511002,100,11,3,1,2,179
3.704106,2.694527,100,11,3,4,5,183
2.45364,2.688398,100,11,3,5,6,187
2.175975,2.690806,100,11,3,6,7,191
2.131207,2.712983,100,11,3,7,8,195
2.382602,2.805803,100,11,3,8,9,199
4.131975,2.747891,100,11,3,9,10,203
3.522433,-0.419609,100,11,3,12,13,207
2.46393,-0.378131,100,11,3,13,14,211
3.261172,-0.358268,100,11,3,14,15,215
3.302301,-0.373786,100,11,3,15,16,219
2.223254,-0.513767,100,12,4,1,2,223
3.62032,-0.395353,100,12,4,2,3,227
4.165882,2.691786,100,12,4,5,6,231
2.685699,2.703937,100,12,4,6,7,235
2.223254,2.71111,100,12,4,7,8,239
2.055061,2.804996,100,12,4,8,9,243
2.5932,2.705167,100,12,4,9,10,247
3.731143,2.793723,100,12,4,10,11,251
3.720676,-0.372456,100,12,4,13,14,255
3.536533,-0.367248,100,12,4,14,15,3
3.485908,-0.379061,100,12,4,15,16,7
1.94612,-0.519775,100,13,5,1,2,11
2.321581,-0.392362,100,13,5,2,3,15
4.125616,-0.415972,100,13,5,3,4,19
3.936441,2.70478,100,13,5,6,7,23
2.500955,2.70652,100,13,5,7,8,27
2.055266,2.805028,100,13,5,8,9,31
2.175758,2.690774,100,13,5,9,10,35
2.514622,2.780157,100,13,5,10,11,39
4.125616,2.725621,100,13,5,11,12,43
4.978301,-0.369649,100,13,5,14,15,47
4.242344,-0.351797,100,13,5,15,16,51
2.218525,-0.472643,100,14,6,1,2,55
2.045428,-0.381336,100,14,6,2,3,59
2.457865,-0.41542,100,14,6,3,4,63
3.475554,-0.432184,100,14,6,4,5,67
3.893918,2.717013,100,14,6,7,8,71
2.383391,2.8058,100,14,6,8,9,75
2.224284,2.71104,100,14,6,9,10,79
2.137581,2.756104,100,14,6,10,11,83
2.779211,2.702686,100,14,6,11,12,87
4.585256,2.699659,100,14,6,12,13,91
6.564353,-0.366243,100,14,6,15,16,95
3.196143,-0.486458,100,15,7,1,2,99
2.37336,-0.374471,100,15,7,2,3,103
