BIOZ1_MAG,BIOZ1_PHASE,EXC_FREQ_KHZ,EXC_PIN,GND_PIN,SNS_AP_PIN,SNS_AN_PIN,PACKET_NUMBER
4.372109,-0.002932,1,2,10,3,4,156
2.298804,-0.005405,1,2,10,4,5,160
2.159065,0.010736,1,2,10,5,6,164
2.24248,-0.004089,1,2,10,6,7,168
2.580753,0.01104,1,2,10,7,8,172
3.980483,0.002203,1,2,10,8,9,176
3.750212,3.132453,1,2,10,11,12,180
2.184215,3.13884,1,2,10,12,13,184
2.214433,-3.132347,1,2,10,13,14,188
3.451048,-3.139046,1,2,10,14,15,192
3.672538,3.140887,1,2,10,15,16,196
3.754854,3.132117,1,3,11,1,2,200
3.643168,-0.008058,1,3,11,4,5,204
2.580267,0.010871,1,3,11,5,6,208
2.242458,-0.004268,1,3,11,6,7,212
2.218847,0.008733,1,3,11,7,8,216
2.663854,-0.00179,1,3,11,8,9,220
4.20272,-0.00082,1,3,11,9,10,224
3.504935,-3.139967,1,3,11,12,13,228
2.383326,-3.137053,1,3,11,13,14,232
3.250395,3.139069,1,3,11,14,15,236
3.332657,-3.136854,1,3,11,15,16,240
2.271329,-3.134423,1,4,12,1,2,244
3.642138,3.133281,1,4,12,2,3,248
4.287826,0.004342,1,4,12,5,6,252
2.691379,0.008132,1,4,12,6,7,0
2.270624,0.007232,1,4,12,7,8,4
2.327727,0.005721,1,4,12,8,9,8
2.549499,0.000571,1,4,12,9,10,12
3.92122,0.002828,1,4,12,10,11,16
3.700842,-3.135536,1,4,12,13,14,20
3.56161,-3.140992,1,4,12,14,15,24
3.479262,-3.13167,1,4,12,15,16,28
2.018346,-3.140353,1,5,13,1,2,32
2.214901,-3.132583,1,5,13,2,3,36
4.145166,3.141468,1,5,13,3,4,40
4.147916,-0.000295,1,5,13,6,7,44
2.579235,0.010938,1,5,13,7,8,48
2.325167,0.006094,1,5,13,8,9,52
2.214797,0.008967,1,5,13,9,10,56
2.547487,0.000882,1,5,13,10,11,60
4.226961,0.005586,1,5,13,11,12,64
4.927521,-3.138843,1,5,13,14,15,68
4.314093,3.139396,1,5,13,15,16,72
2.271396,-3.133886,1,6,14,1,2,76
1.935843,-3.123231,1,6,14,2,3,80
2.441731,-3.138412,1,6,14,3,4,84
3.41797,3.136757,1,6,14,4,5,88
3.978012,0.002327,1,6,14,7,8,92
2.663291,-0.001554,1,6,14,8,9,96
2.185283,-0.002824,1,6,14,9,10,100
2.214433,0.009245,1,6,14,10,11,104
2.887761,-0.005556,1,6,14,11,12,108
4.597391,-0.005447,1,6,14,12,13,112
6.644124,-3.14088,1,6,14,15,16,116
3.223861,-3.135132,1,7,15,1,2,120
2.269547,-3.134021,1,7,15,2,3,124
2.242469,3.137414,1,7,15,3,4,128
2.16062,-3.130806,1,7,15,4,5,132
3.813538,-3.136832,1,7,15,5,6,136
3.983709,0.002249,1,7,15,8,9,140
2.438709,0.003517,1,7,15,9,10,144
2.047515,0.014589,1,7,15,10,11,148
2.271802,0.007697,1,7,15,11,12,152
3.057077,0.010367,1,7,15,12,13,156
5.883301,0.003308,1,7,15,13,14,160
4.880402,-3.138378,1,8,16,1,2,164
2.969938,-3.139053,1,8,16,2,3,168
2.439237,-3.138222,1,8,16,3,4,172
2.019364,-3.140156,1,8,16,4,5,176
2.551601,-3.140708,1,8,16,5,6,180
4.145421,-3.141407,1,8,16,6,7,184
3.867189,0.003987,1,8,16,9,10,188
2.157949,0.011123,1,8,16,10,11,192
1.905505,0.004931,1,8,16,11,12,196
2.074838,8.6e-05,1,8,16,12,13,200
3.335088,0.004968,1,8,16,13,14,204
6.504903,0.006375,1,8,16,14,15,208
4.288209,-3.137255,1,9,1,2,3,212
2.774444,3.137528,1,9,1,3,4,216
1.988114,3.129408,1,9,1,4,5,220
2.213203,-3.132676,1,9,1,5,6,224
2.745876,-3.134749,1,9,1,6,7,228
4.204319,3.140348,1,9,1,7,8,232
3.50162,0.001543,1,9,1,10,11,236
2.159317,0.010416,1,9,1,11,12,240
1.79399,0.007916,1,9,1,12,13,244
2.381924,0.004437,1,9,1,13,14,248
4.233105,0.005104,1,9,1,14,15,252
5.103269,0.000301,1,9,1,15,16,0
4.311234,3.139566,1,10,2,3,4,4
2.327652,-3.135646,1,10,2,4,5,8
2.215495,-3.132598,1,10,2,5,6,12
2.35525,3.134883,1,10,2,6,7,16
2.605623,3.141159,1,10,2,7,8,20
4.058342,3.135861,1,10,2,8,9,24
3.721826,-0.001231,1,10,2,11,12,28
2.071395,4.1e-05,1,10,2,12,13,32
2.156295,0.01103,1,10,2,13,14,36
3.362752,0.012499,1,10,2,14,15,40
3.640216,0.007684,1,10,2,15,16,44
3.63844,-0.008032,1,11,3,1,2,48
3.725904,3.139899,1,11,3,4,5,52
2.661248,3.139946,1,11,3,5,6,56
2.380883,-3.136953,1,11,3,6,7,60
2.270454,-3.134088,1,11,3,7,8,64
2.717019,3.139,1,11,3,8,9,68
4.195436,3.141001,1,11,3,9,10,72
3.442308,0.002908,1,11,3,12,13,76
2.324654,0.006151,1,11,3,13,14,80
3.167451,0.007633,1,11,3,14,15,84
3.280603,0.005409,1,11,3,15,16,88
2.160761,0.010335,1,12,4,1,2,92
3.561593,0.000511,1,12,4,2,3,96
4.370667,3.138364,1,12,4,5,6,100
2.833419,-3.126919,1,12,4,6,7,104
2.29651,3.135973,1,12,4,7,8,108
2.353432,3.134701,1,12,4,8,9,112
2.634227,-3.132154,1,12,4,9,10,116
3.978795,-3.13977,1,12,4,10,11,120
3.615113,-0.000171,1,12,4,13,14,124
3.471317,-0.005946,1,12,4,14,15,128
3.445334,0.002592,1,12,4,15,16,132
1.905369,0.004441,1,13,5,1,2,136
2.21362,0.009086,1,13,5,2,3,140
4.033085,0.001288,1,13,5,3,4,144
4.202126,3.140646,1,13,5,6,7,148
2.632148,-3.131842,1,13,5,7,8,152
2.354896,-3.124448,1,13,5,8,9,156
2.24135,3.137307,1,13,5,9,10,160
2.633893,-3.132013,1,13,5,10,11,164
4.314437,3.139212,1,13,5,11,12,168
4.87707,0.003027,1,13,5,14,15,172
4.199716,-0.000781,1,13,5,15,16,176
2.214901,0.00901,1,14,6,1,2,180
1.905908,0.004695,1,14,6,2,3,184
2.352747,-0.006473,1,14,6,3,4,188
3.333566,0.004813,1,14,6,4,5,192
4.034035,-3.140093,1,14,6,7,8,196
2.716674,3.139141,1,14,6,8,9,200
2.240181,3.137604,1,14,6,9,10,204
2.296857,3.136279,1,14,6,10,11,208
2.943163,3.135034,1,14,6,11,12,212
4.622098,-3.141011,1,14,6,12,13,216
6.533155,0.00151,1,14,6,15,16,220
3.195906,-0.00097,1,15,7,1,2,224
2.271835,0.007965,1,15,7,2,3,228
2.186004,-0.002527,1,15,7,3,4,232
2.215246,0.009405,1,15,7,4,5,236
3.785218,-0.002252,1,15,7,5,6,240
3.980878,-3.139215,1,15,7,8,9,244
2.498363,-3.139625,1,15,7,9,10,248
2.132439,3.139948,1,15,7,10,11,252
2.442064,-3.138375,1,15,7,11,12,0
3.086902,-3.141197,1,15,7,12,13,4
5.971381,3.139185,1,15,7,13,14,8
4.846692,-0.001722,1,16,8,1,2,12
2.915783,0.003638,1,16,8,2,3,16
2.384842,0.004684,1,16,8,3,4,20
2.018195,0.001513,1,16,8,4,5,24
2.496351,0.002012,1,16,8,5,6,28
3.979099,0.002401,1,16,8,6,7,32
3.868918,-3.13763,1,16,8,9,10,36
2.27038,-3.133862,1,16,8,10,11,40
2.073442,-3.141515,1,16,8,11,12,44
2.21258,-3.132078,1,16,8,12,13,48
3.44328,-3.138431,1,16,8,13,14,52
6.523361,-3.139643,1,16,8,14,15,56
4.229564,0.005374,1,1,9,2,3,60
2.689328,0.008129,1,1,9,3,4,64
2.015822,0.001307,1,1,9,4,5,68
2.127577,-0.001566,1,1,9,5,6,72
2.548037,0.000736,1,1,9,6,7,76
4.142185,-0.000175,1,1,9,7,8,80
3.501342,-3.139866,1,1,9,10,11,84
2.295302,3.136181,1,1,9,11,12,88
1.903346,-3.136914,1,1,9,12,13,92
2.434206,-3.13829,1,1,9,13,14,96
4.253834,3.140089,1,1,9,14,15,100
5.152343,-3.141546,1,1,9,15,16,104
4.171038,0.006609,1,2,10,3,4,108
2.322198,0.006477,1,2,10,4,5,112
2.154382,0.011167,1,2,10,5,6,116
2.18287,-0.00254,1,2,10,6,7,120
2.545597,0.001236,1,2,10,7,8,124
3.973434,0.002568,1,2,10,8,9,128
3.748477,-3.135602,1,2,10,11,12,132
2.181128,3.139185,1,2,10,12,13,136
2.209838,-3.131833,1,2,10,13,14,140
3.440515,-3.138388,1,2,10,14,15,144
3.580303,-3.13271,1,2,10,15,16,148
3.715344,3.125501,1,3,11,1,2,152
3.640831,0.007496,1,3,11,4,5,156
2.576956,0.011165,1,3,11,5,6,160
2.212757,0.009331,1,3,11,6,7,164
2.183342,-0.002686,1,3,11,7,8,168
2.599973,-3e-06,1,3,11,8,9,172
4.140046,0.000211,1,3,11,9,10,176
3.387425,-3.137761,1,3,11,12,13,180
2.376693,-3.13641,1,3,11,13,14,184
3.246072,3.13932,1,3,11,14,15,188
3.218894,-3.134645,1,3,11,15,16,192
2.213598,-3.132686,1,4,12,1,2,196
3.613022,3.141498,1,4,12,2,3,200
4.311738,-0.002346,1,4,12,5,6,204
2.686614,0.008497,1,4,12,6,7,208
2.182059,-0.002788,1,4,12,7,8,212
2.265913,0.007748,1,4,12,8,9,216
2.576375,0.011132,1,4,12,9,10,220
3.919304,0.002899,1,4,12,10,11,224
3.72013,3.140207,1,4,12,13,14,228
3.552145,-3.14049,1,4,12,14,15,232
3.386342,-3.137879,1,4,12,15,16,236
1.959073,-3.138364,1,5,13,1,2,240
2.2939,3.136483,1,5,13,2,3,244
4.084801,-3.140695,1,5,13,3,4,248
4.140221,0.000164,1,5,13,6,7,252
2.545238,0.001109,1,5,13,7,8,0
2.267638,0.007751,1,5,13,8,9,4
2.183055,-0.002634,1,5,13,9,10,8
2.546709,0.001033,1,5,13,10,11,12
4.198809,-0.000635,1,5,13,11,12,16
4.867842,-3.13797,1,5,13,14,15,20
4.282368,-3.136778,1,5,13,15,16,24
2.26847,-3.133682,1,6,14,1,2,28
2.013372,-3.139593,1,6,14,2,3,32
2.434493,-3.137759,1,6,14,3,4,36
3.498464,-3.139329,1,6,14,4,5,40
3.977676,0.002421,1,6,14,7,8,44
2.633238,0.009952,1,6,14,8,9,48
2.158801,0.010967,1,6,14,9,10,52
2.239285,-0.003922,1,6,14,10,11,56
2.855839,0.005021,1,6,14,11,12,60
4.588642,-0.00503,1,6,14,12,13,64
6.605926,3.138652,1,6,14,15,16,68
3.251542,3.13896,1,7,15,1,2,72
2.381959,-3.136888,1,7,15,2,3,76
2.270177,-3.133857,1,7,15,3,4,80
2.215412,-3.132461,1,7,15,4,5,84
3.837568,3.138771,1,7,15,5,6,88
3.926188,0.003029,1,7,15,8,9,92
2.413,0.015843,1,7,15,9,10,96
2.073823,0.000157,1,7,15,10,11,100
2.269281,0.007891,1,7,15,11,12,104
3.025556,0.001678,1,7,15,12,13,108
5.907092,-0.001574,1,7,15,13,14,112
4.874779,-3.138137,1,8,16,1,2,116
2.970609,-3.139021,1,8,16,2,3,120
2.438158,-3.138109,1,8,16,3,4,124
2.015426,-3.139782,1,8,16,4,5,128
2.578484,-3.130236,1,8,16,5,6,132
4.03087,-3.139693,1,8,16,6,7,136
3.782049,-0.001982,1,8,16,9,10,140
2.183281,-0.002371,1,8,16,10,11,144
1.905505,0.004931,1,8,16,11,12,148
2.102037,0.012805,1,8,16,12,13,152
3.361174,0.012927,1,8,16,13,14,156
6.611241,-0.002984,1,8,16,14,15,160
4.255693,3.139886,1,9,1,2,3,164
2.801707,-3.135969,1,9,1,3,4,168
2.018944,-3.140683,1,9,1,4,5,172
2.185436,3.138407,1,9,1,5,6,176
2.605598,3.14098,1,9,1,6,7,180
4.204695,3.140343,1,9,1,7,8,184
3.447911,0.002327,1,9,1,10,11,188
2.158261,0.010487,1,9,1,11,12,192
1.794708,0.007849,1,9,1,12,13,196
2.438741,0.002933,1,9,1,13,14,200
4.121915,0.006668,1,9,1,14,15,204
5.073871,-0.004817,1,9,1,15,16,208
4.255416,3.140337,1,10,2,3,4,212
2.37963,-3.136745,1,10,2,4,5,216
2.213152,-3.132271,1,10,2,5,6,220
2.214026,-3.132427,1,10,2,6,7,224
2.602966,3.141349,1,10,2,7,8,228
4.030112,-3.139862,1,10,2,8,9,232
3.724118,-0.001444,1,10,2,11,12,236
2.071502,0.000173,1,10,2,12,13,240
2.101078,0.01265,1,10,2,13,14,244
3.38566,0.004128,1,10,2,14,15,248
3.583617,0.008609,1,10,2,15,16,252
3.636526,-0.007825,1,11,3,1,2,0
3.725256,3.139998,1,11,3,4,5,4
2.63053,-3.13163,1,11,3,5,6,8
2.267638,-3.133841,1,11,3,6,7,12
2.239864,3.137477,1,11,3,7,8,16
2.657947,3.140192,1,11,3,8,9,20
4.14277,3.141544,1,11,3,9,10,24
3.388763,0.003675,1,11,3,12,13,28
2.295723,-0.005332,1,11,3,13,14,32
3.166052,0.007747,1,11,3,14,15,36
3.220876,0.006735,1,11,3,15,16,40
2.157227,0.010738,1,12,4,1,2,44
3.558444,0.000738,1,12,4,2,3,48
4.369331,3.138515,1,12,4,5,6,52
2.659709,3.140022,1,12,4,6,7,56
2.237948,3.137389,1,12,4,7,8,60
2.297212,3.135822,1,12,4,8,9,64
2.660871,3.139819,1,12,4,9,10,68
3.97831,-3.139539,1,12,4,10,11,72
3.640796,0.007317,1,12,4,13,14,76
3.443667,0.002752,1,12,4,14,15,80
3.385705,0.003545,1,12,4,15,16,84
1.903605,0.004716,1,13,5,1,2,88
2.267223,0.007672,1,13,5,2,3,92
3.998398,-0.004958,1,13,5,3,4,96
4.085511,-3.140794,1,13,5,6,7,100
2.54568,-3.140582,1,13,5,7,8,104
2.292769,3.136464,1,13,5,8,9,108
2.237476,3.137624,1,13,5,9,10,112
2.577513,-3.130574,1,13,5,10,11,116
4.307952,3.139563,1,13,5,11,12,120
4.838584,-0.002035,1,13,5,14,15,124
4.195613,-0.000639,1,13,5,15,16,128
2.157339,0.010869,1,14,6,1,2,132
1.98883,0.016497,1,14,6,2,3,136
2.32601,0.006164,1,14,6,3,4,140
3.361156,-0.004093,1,14,6,4,5,144
4.032233,-3.140069,1,14,6,7,8,148
2.662927,3.140001,1,14,6,8,9,152
2.216288,-3.132617,1,14,6,9,10,156
2.27147,-3.134112,1,14,6,10,11,160
2.91111,-3.137779,1,14,6,11,12,164
4.730016,3.14093,1,14,6,12,13,168
6.579429,0.00134,1,14,6,15,16,172
3.166173,0.008462,1,15,7,1,2,176
2.323093,0.006993,1,15,7,2,3,180
2.182512,-0.002262,1,15,7,3,4,184
2.212196,0.009613,1,15,7,4,5,188
3.755355,0.005937,1,15,7,5,6,192
3.976125,-3.138927,1,15,7,8,9,196
2.469707,-3.127526,1,15,7,9,10,200
2.1297,3.140242,1,15,7,10,11,204
2.323868,-3.135065,1,15,7,11,12,208
3.108099,-3.13216,1,15,7,12,13,212
5.992071,-3.139279,1,15,7,13,14,216
4.78784,-0.000992,1,16,8,1,2,220
2.854833,0.00513,1,16,8,2,3,224
2.350889,-0.006161,1,16,8,3,4,228
2.016231,0.001745,1,16,8,4,5,232
2.493474,0.002253,1,16,8,5,6,236
3.972389,0.002671,1,16,8,6,7,240
3.865643,-3.137539,1,16,8,9,10,244
2.239202,3.137807,1,16,8,10,11,248
1.988671,-3.124912,1,16,8,11,12,252
2.158029,-3.130606,1,16,8,12,13,0
3.444203,-3.138446,1,16,8,13,14,4
6.688472,-3.140931,1,16,8,14,15,8
4.229743,0.005327,1,1,9,2,3,12
2.69267,0.007882,1,1,9,3,4,16
2.045089,0.014205,1,1,9,4,5,20
2.157704,0.010681,1,1,9,5,6,24
2.602024,-0.000314,1,1,9,6,7,28
4.087296,0.000596,1,1,9,7,8,32
3.497148,-3.139667,1,1,9,10,11,36
2.214681,-3.132757,1,1,9,11,12,40
1.904527,-3.137038,1,1,9,12,13,44
2.43756,-3.138499,1,1,9,13,14,48
4.288048,-3.137119,1,1,9,14,15,52
5.102406,-3.141103,1,1,9,15,16,56
4.169139,-0.006879,1,2,10,3,4,60
2.350657,-0.006335,1,2,10,4,5,64
2.158314,0.010934,1,2,10,5,6,68
2.214443,0.009335,1,2,10,6,7,72
2.548302,0.000999,1,2,10,7,8,76
3.920927,0.003101,1,2,10,8,9,80
3.776647,3.139687,1,2,10,11,12,84
2.158689,-3.130757,1,2,10,12,13,88
2.185973,3.138797,1,2,10,13,14,92
3.334742,-3.136888,1,2,10,14,15,96
3.671553,3.140902,1,2,10,15,16,100
3.694838,3.133078,1,3,11,1,2,104
3.671846,-0.000875,1,3,11,4,5,108
2.604925,-0.000419,1,3,11,5,6,112
2.24445,0.020715,1,3,11,6,7,116
2.213537,0.009222,1,3,11,7,8,120
2.492336,0.002099,1,3,11,8,9,124
4.146453,-0.000186,1,3,11,9,10,128
3.501671,-3.139782,1,3,11,12,13,132
2.380369,-3.136807,1,3,11,13,14,136
3.135843,3.141138,1,3,11,14,15,140
3.335181,-3.13694,1,3,11,15,16,144
2.184943,3.138374,1,4,12,1,2,148
3.586207,3.133911,1,4,12,2,3,152
4.341947,0.003653,1,4,12,5,6,156
2.661711,-0.001746,1,4,12,6,7,160
2.21538,0.008863,1,4,12,7,8,164
2.101236,0.012377,1,4,12,8,9,168
2.549284,0.000665,1,4,12,9,10,172
3.923655,0.002705,1,4,12,10,11,176
3.667427,3.140828,1,4,12,13,14,180
3.385452,-3.137775,1,4,12,14,15,184
3.503186,-3.140074,1,4,12,15,16,188
1.961496,-3.138699,1,5,13,1,2,192
2.324238,-3.135432,1,5,13,2,3,196
4.085166,-3.1407,1,5,13,3,4,200
4.028654,0.001661,1,5,13,6,7,204
2.549188,0.000801,1,5,13,7,8,208
2.10172,0.012499,1,5,13,8,9,212
2.157521,0.010775,1,5,13,9,10,216
2.490124,0.002236,1,5,13,10,11,220
4.201217,-0.000801,1,5,13,11,12,224
4.926873,-3.138791,1,5,13,14,15,228
4.22867,-3.135983,1,5,13,15,16,232
2.182399,3.139199,1,6,14,1,2,236
2.071785,-3.141383,1,6,14,2,3,240
2.381769,-3.136704,1,6,14,3,4,244
3.583899,3.134439,1,6,14,4,5,248
3.976778,0.002388,1,6,14,7,8,252
2.524545,0.012446,1,6,14,8,9,0
2.159085,0.010915,1,6,14,9,10,4
2.184513,-0.002715,1,6,14,10,11,8
2.855329,0.005031,1,6,14,11,12,12
4.676925,-1.3e-05,1,6,14,12,13,16
6.5868,-3.140268,1,6,14,15,16,20
3.280896,-3.136188,1,7,15,1,2,24
2.383966,-3.137068,1,7,15,2,3,28
2.243272,3.137395,1,7,15,3,4,32
2.242775,3.137452,1,7,15,4,5,36
3.839103,3.138704,1,7,15,5,6,40
3.925856,0.003123,1,7,15,8,9,44
2.440765,0.003336,1,7,15,9,10,48
2.018832,0.001541,1,7,15,10,11,52
2.242501,-0.00391,1,7,15,11,12,56
3.113894,0.009064,1,7,15,12,13,60
5.948382,0.002462,1,7,15,13,14,64
4.887997,-3.138687,1,8,16,1,2,68
2.921474,-3.13842,1,8,16,2,3,72
2.385145,-3.13705,1,8,16,3,4,76
2.051501,-3.127558,1,8,16,4,5,80
2.550124,-3.140632,1,8,16,5,6,84
4.038899,-3.140203,1,8,16,6,7,88
3.815909,0.004637,1,8,16,9,10,92
2.159563,0.010858,1,8,16,10,11,96
1.90702,0.004708,1,8,16,11,12,100
2.130081,-0.00136,1,8,16,12,13,104
3.393503,0.003824,1,8,16,13,14,108
6.646221,0.00074,1,8,16,14,15,112
4.289743,-3.137275,1,9,1,2,3,116
2.745372,-3.134829,1,9,1,3,4,120
2.072105,3.141346,1,9,1,4,5,124
2.241518,3.137034,1,9,1,5,6,128
2.637265,-3.132396,1,9,1,6,7,132
4.200406,3.140534,1,9,1,7,8,136
3.45098,0.002189,1,9,1,10,11,140
2.104756,0.011838,1,9,1,11,12,144
1.823574,-0.008611,1,9,1,12,13,148
2.439511,0.002961,1,9,1,13,14,152
4.34581,0.003514,1,9,1,14,15,156
5.043348,0.001132,1,9,1,15,16,160
4.227024,3.133933,1,10,2,3,4,164
2.381734,-3.136972,1,10,2,4,5,168
2.212362,-3.132252,1,10,2,5,6,172
2.294202,3.136431,1,10,2,6,7,176
2.633213,-3.131819,1,10,2,7,8,180
3.977302,-3.139256,1,10,2,8,9,184
3.694846,0.006727,1,10,2,11,12,188
2.159065,0.010736,1,10,2,12,13,192
2.127608,-0.001298,1,10,2,13,14,196
3.440951,0.003064,1,10,2,14,15,200
3.5852,0.008496,1,10,2,15,16,204
3.697078,-0.008906,1,11,3,1,2,208
3.889584,3.137912,1,11,3,4,5,212
2.660785,3.140045,1,11,3,5,6,216
2.295227,3.136407,1,11,3,6,7,220
2.269451,-3.133974,1,11,3,7,8,224
2.437045,-3.138263,1,11,3,8,9,228
4.201197,3.140703,1,11,3,9,10,232
3.502759,0.001749,1,11,3,12,13,236
2.326305,0.006023,1,11,3,13,14,240
3.248805,-0.002453,1,11,3,14,15,244
3.249951,-0.002561,1,11,3,15,16,248
2.16067,0.010382,1,12,4,1,2,252
3.53141,-0.006912,1,12,4,2,3,0
4.40149,-3.138858,1,12,4,5,6,4
2.717695,3.138628,1,12,4,6,7,8
2.297623,3.135812,1,12,4,7,8,12
2.103282,-3.129448,1,12,4,8,9,16
2.660871,3.139819,1,12,4,9,10,20
3.949212,3.136789,1,12,4,10,11,24
3.67067,-0.000992,1,12,4,13,14,28
3.559532,0.000587,1,12,4,14,15,32
3.390371,0.003336,1,12,4,15,16,36
1.904286,0.004696,1,13,5,1,2,40
2.26944,0.007529,1,13,5,2,3,44
4.033806,0.001278,1,13,5,3,4,48
4.08968,-3.140984,1,13,5,6,7,52
2.634599,-3.132027,1,13,5,7,8,56
2.073675,3.14126,1,13,5,8,9,60
2.240844,3.137274,1,13,5,9,10,64
2.54781,-3.140852,1,13,5,10,11,68
4.258377,3.139941,1,13,5,11,12,72
4.898537,-0.002629,1,13,5,14,15,76
4.175432,0.006194,1,13,5,15,16,80
2.158282,0.010666,1,14,6,1,2,84
2.0179,0.001296,1,14,6,2,3,88
2.326721,0.006013,1,14,6,3,4,92
3.474913,-0.005867,1,14,6,4,5,96
4.037776,-3.140368,1,14,6,7,8,100
2.549764,-3.140759,1,14,6,8,9,104
2.213059,-3.132224,1,14,6,9,10,108
2.212757,-3.132262,1,14,6,10,11,112
2.88442,3.136189,1,14,6,11,12,116
4.730016,3.14093,1,14,6,12,13,120
6.52333,0.00186,1,14,6,15,16,124
3.220001,0.007511,1,15,7,1,2,128
2.350614,-0.005841,1,15,7,2,3,132
2.182707,-0.002267,1,15,7,3,4,136
2.292006,-0.004663,1,15,7,4,5,140
3.810006,0.005034,1,15,7,5,6,144
3.891561,3.138198,1,15,7,8,9,148
2.491716,-3.139122,1,15,7,9,10,152
2.0716,-3.141378,1,15,7,10,11,156
2.353492,-3.123879,1,15,7,11,12,160
3.220514,-3.134448,1,15,7,12,13,164
5.990466,-3.139264,1,15,7,13,14,168
4.817507,0.004452,1,16,8,1,2,172
2.852715,0.005482,1,16,8,2,3,176
2.322831,0.006552,1,16,8,3,4,180
2.071795,0.000299,1,16,8,4,5,184
2.523667,0.012644,1,16,8,5,6,188
4.002366,-0.004832,1,16,8,6,7,192
3.86105,-3.137162,1,16,8,9,10,196
2.182399,3.139199,1,16,8,10,11,200
2.014716,-3.139673,1,16,8,11,12,204
2.237813,3.13793,1,16,8,12,13,208
3.441905,-3.138365,1,16,8,13,14,212
6.74013,-3.141169,1,16,8,14,15,216
4.226364,0.00546,1,1,9,2,3,220
2.687787,0.008294,1,1,9,3,4,224
2.07266,-0.000261,1,1,9,4,5,228
2.182059,-0.002788,1,1,9,5,6,232
2.574548,0.01126,1,1,9,6,7,236
4.115371,0.007113,1,1,9,7,8,240
3.497937,-3.139634,1,1,9,10,11,244
2.237665,3.13753,1,1,9,11,12,248
1.959661,-3.138604,1,1,9,12,13,252
2.491774,-3.139526,1,1,9,13,14,0
4.42227,3.138038,1,1,9,14,15,4
5.093609,-3.140696,1,1,9,15,16,8
4.194925,-0.000362,1,2,10,3,4,12
2.434802,0.003693,1,2,10,4,5,16
2.184996,-0.002772,1,2,10,5,6,20
2.159075,0.010826,1,2,10,6,7,24
2.549321,0.000933,1,2,10,7,8,28
3.83654,-0.002807,1,2,10,8,9,32
3.722806,3.140257,1,2,10,11,12,36
2.211676,-3.132191,1,2,10,12,13,40
2.238307,3.137873,1,2,10,13,14,44
3.664414,3.141365,1,2,10,14,15,48
3.609901,-3.141103,1,2,10,15,16,52
3.691713,3.133169,1,3,11,1,2,56
3.777622,-0.002098,1,3,11,4,5,60
2.603431,-0.000254,1,3,11,5,6,64
2.15333,0.011238,1,3,11,6,7,68
2.211561,0.00927,1,3,11,7,8,72
2.378367,0.004965,1,3,11,8,9,76
4.112492,0.007419,1,3,11,9,10,80
3.585031,-3.133139,1,3,11,12,13,84
2.434138,-3.137975,1,3,11,13,14,88
3.442308,-3.138685,1,3,11,14,15,92
3.274654,-3.135771,1,3,11,15,16,96
2.212028,-3.132557,1,4,12,1,2,100
3.611103,-3.141568,1,4,12,2,3,104
4.363318,-0.002868,1,4,12,5,6,108
2.631678,0.00976,1,4,12,6,7,112
2.210678,0.009337,1,4,12,7,8,116
2.042651,0.014493,1,4,12,8,9,120
2.575116,0.011203,1,4,12,9,10,124
3.864532,0.00371,1,4,12,10,11,128
3.724064,3.139881,1,4,12,13,14,132
3.699242,-3.135243,1,4,12,14,15,136
3.444428,-3.138897,1,4,12,15,16,140
1.958815,-3.138312,1,5,13,1,2,144
2.325156,-3.135588,1,5,13,2,3,148
4.086413,-3.140851,1,5,13,3,4,152
4.059247,0.008048,1,5,13,6,7,156
2.577986,0.011098,1,5,13,7,8,160
1.990494,0.016228,1,5,13,8,9,164
2.156183,0.010898,1,5,13,9,10,168
2.491118,0.00217,1,5,13,10,11,172
4.198414,-0.00072,1,5,13,11,12,176
5.036242,-3.140026,1,5,13,14,15,180
4.283536,-3.136703,1,5,13,15,16,184
2.237624,3.138024,1,6,14,1,2,188
2.07197,-3.141387,1,6,14,2,3,192
2.379653,-3.136567,1,6,14,3,4,196
3.468645,3.136316,1,6,14,4,5,200
3.974686,0.002596,1,6,14,7,8,204
2.355983,0.017388,1,6,14,8,9,208
2.184236,-0.002574,1,6,14,9,10,212
2.16003,0.010712,1,6,14,10,11,216
2.801156,0.006127,1,6,14,11,12,220
4.705565,0.005521,1,6,14,12,13,224
6.578595,-3.140112,1,6,14,15,16,228
3.277857,-3.135914,1,7,15,1,2,232
2.438146,-3.138198,1,7,15,2,3,236
2.214829,-3.132357,1,7,15,3,4,240
2.408334,3.134156,1,7,15,4,5,244
3.868409,-3.137578,1,7,15,5,6,248
3.839284,-0.002846,1,7,15,8,9,252
2.439582,0.003497,1,7,15,9,10,0
1.990009,0.016689,1,7,15,10,11,4
2.295767,-0.004975,1,7,15,11,12,8
3.107822,0.009438,1,7,15,12,13,12
5.880701,0.003421,1,7,15,13,14,16
4.874985,-3.138184,1,8,16,1,2,20
2.94205,-3.128863,1,8,16,2,3,24
2.40813,3.13425,1,8,16,3,4,28
2.239107,3.137854,1,8,16,4,5,32
2.576086,-3.130052,1,8,16,5,6,36
4.005319,-3.132436,1,8,16,6,7,40
3.806783,0.005125,1,8,16,9,10,44
2.127718,-0.001166,1,8,16,10,11,48
1.960141,0.003379,1,8,16,11,12,52
2.266574,0.008179,1,8,16,12,13,56
3.385692,0.004306,1,8,16,13,14,60
6.690265,0.000647,1,8,16,14,15,64
4.283272,-3.137013,1,9,1,2,3,68
2.798733,-3.135732,1,9,1,3,4,72
2.241222,3.137086,1,9,1,4,5,76
2.269514,-3.134289,1,9,1,5,6,80
2.634227,-3.132154,1,9,1,6,7,84
4.171077,3.134196,1,9,1,7,8,88
3.445334,0.002592,1,9,1,10,11,92
2.157977,0.010539,1,9,1,11,12,96
2.015727,0.001265,1,9,1,12,13,100
2.438856,0.002975,1,9,1,13,14,104
4.365245,-0.002982,1,9,1,14,15,108
5.037993,0.001369,1,9,1,15,16,112
4.226247,-3.135818,1,10,2,3,4,116
2.545023,-3.14039,1,10,2,4,5,120
2.269056,-3.133875,1,10,2,5,6,124
2.185386,3.138811,1,10,2,6,7,128
2.632298,-3.131622,1,10,2,7,8,132
3.868352,-3.137846,1,10,2,8,9,136
3.667307,-0.000539,1,10,2,11,12,140
2.237792,-0.003842,1,10,2,12,13,144
2.213037,0.00919,1,10,2,13,14,148
3.612599,0.000226,1,10,2,14,15,152
3.588067,0.008363,1,10,2,15,16,156
3.640066,-0.008057,1,11,3,1,2,160
3.833762,3.138645,1,11,3,4,5,164
2.660785,3.140045,1,11,3,5,6,168
2.267532,-3.133884,1,11,3,6,7,172
2.238075,3.13761,1,11,3,7,8,176
2.491223,-3.13947,1,11,3,8,9,180
4.165047,3.134767,1,11,3,9,10,184
3.498726,0.001991,1,11,3,12,13,188
2.379607,0.004669,1,11,3,13,14,192
3.388174,0.003774,1,11,3,14,15,196
3.246789,-0.002329,1,11,3,15,16,200
2.156831,0.010658,1,12,4,1,2,204
3.527028,-0.006665,1,12,4,2,3,208
4.452056,-3.139287,1,12,4,5,6,212
2.687674,-3.133251,1,12,4,6,7,216
2.268213,-3.134124,1,12,4,7,8,220
2.156639,-3.13093,1,12,4,8,9,224
2.658746,3.139952,1,12,4,9,10,228
3.924006,-3.138893,1,12,4,10,11,232
3.642541,0.007067,1,12,4,13,14,236
3.613175,-0.000141,1,12,4,14,15,240
3.386485,0.003667,1,12,4,15,16,244
1.933332,0.018387,1,13,5,1,2,248
2.269237,0.007534,1,13,5,2,3,252
4.029884,0.00151,1,13,5,3,4,0
4.114095,-3.134418,1,13,5,6,7,4
2.62948,-3.131564,1,13,5,7,8,8
2.125799,3.140296,1,13,5,8,9,12
2.212257,-3.132294,1,13,5,9,10,16
2.601108,3.141387,1,13,5,10,11,20
4.250838,3.140306,1,13,5,11,12,24
5.038041,0.001548,1,13,5,14,15,28
4.200842,-0.000796,1,13,5,15,16,32
2.211364,0.009275,1,14,6,1,2,36
2.016657,0.001509,1,14,6,2,3,40
2.379418,0.004852,1,14,6,3,4,44
3.579455,-0.006907,1,14,6,4,5,48
4.026536,-3.139724,1,14,6,7,8,52
2.435122,-3.137952,1,14,6,8,9,56
2.237886,3.137704,1,14,6,9,10,60
2.267852,-3.133757,1,14,6,10,11,64
2.910851,-3.137774,1,14,6,11,12,68
4.756758,-3.136538,1,14,6,12,13,72
6.527072,0.001695,1,14,6,15,16,76
3.191368,-0.000715,1,15,7,1,2,80
2.325344,0.006673,1,15,7,2,3,84
2.21386,0.009438,1,15,7,3,4,88
2.238623,-0.003593,1,15,7,4,5,92
3.834701,-0.002558,1,15,7,5,6,96
3.834178,3.138998,1,15,7,8,9,100
2.493381,-3.139203,1,15,7,9,10,104
2.100368,-3.128566,1,15,7,10,11,108
2.324502,-3.13499,1,15,7,11,12,112
3.192583,3.140454,1,15,7,12,13,116
5.939933,-3.138874,1,15,7,13,14,120
4.8222,0.00422,1,16,8,1,2,124
2.88309,0.014391,1,16,8,2,3,128
2.378077,0.005196,1,16,8,3,4,132
2.041629,-0.012605,1,16,8,4,5,136
2.490709,0.002447,1,16,8,5,6,140
3.974854,0.002549,1,16,8,6,7,144
3.867371,-3.137564,1,16,8,9,10,148
2.212778,-3.132083,1,16,8,10,11,152
1.960141,-3.138214,1,16,8,11,12,156
2.294235,3.136699,1,16,8,12,13,160
3.447249,-3.138672,1,16,8,13,14,164
6.749067,-3.141509,1,16,8,14,15,168
4.26008,-0.001718,1,1,9,2,3,172
2.717836,-0.002833,1,1,9,3,4,176
2.072943,-0.000223,1,1,9,4,5,180
2.184183,-0.00302,1,1,9,5,6,184
2.546672,0.000765,1,1,9,6,7,188
4.116279,0.007056,1,1,9,7,8,192
3.447037,-3.138983,1,1,9,10,11,196
2.184378,3.138567,1,1,9,11,12,200
2.047186,-3.127488,1,1,9,12,13,204
2.548037,-3.140856,1,1,9,13,14,208
4.453669,-3.139217,1,1,9,14,15,212
5.100822,-3.141041,1,1,9,15,16,216
4.145206,5.4e-05,1,2,10,3,4,220
2.381757,0.004799,1,2,10,4,5,224
2.213933,0.009213,1,2,10,5,6,228
2.215517,0.009174,1,2,10,6,7,232
2.523204,0.012564,1,2,10,7,8,236
3.780838,-0.002099,1,2,10,8,9,240
3.724312,3.14028,1,2,10,11,12,244
2.301692,-3.122731,1,2,10,12,13,248
2.296047,3.136387,1,2,10,13,14,252
3.610698,-3.141159,1,2,10,14,15,0
3.640233,-3.133819,1,2,10,15,16,4
3.692876,3.133197,1,3,11,1,2,8
3.892365,-0.003719,1,3,11,4,5,12
2.577417,0.011155,1,3,11,5,6,16
2.268555,0.007774,1,3,11,6,7,20
2.183239,-0.002728,1,3,11,7,8,24
2.437366,0.003277,1,3,11,8,9,28
4.177298,0.00617,1,3,11,9,10,32
3.61321,-3.141555,1,3,11,12,13,36
2.493661,-3.139612,1,3,11,13,14,40
3.446292,-3.138837,1,3,11,14,15,44
3.307096,-3.128016,1,3,11,15,16,48
2.21183,-3.132553,1,4,12,1,2,52
3.639877,3.133404,1,4,12,2,3,56
4.395864,0.003118,1,4,12,5,6,60
2.65746,-0.00148,1,4,12,6,7,64
2.213307,0.008959,1,4,12,7,8,68
2.099933,0.0125,1,4,12,8,9,72
2.549043,0.00058,1,4,12,9,10,76
3.865386,0.003654,1,4,12,10,11,80
3.668547,3.140677,1,4,12,13,14,84
3.703648,-3.135622,1,4,12,14,15,88
3.476644,-3.131495,1,4,12,15,16,92
1.985332,3.130021,1,5,13,1,2,96
2.32259,-3.135304,1,5,13,2,3,100
4.084781,-3.140784,1,5,13,3,4,104
4.030793,0.001543,1,5,13,6,7,108
2.545465,0.001104,1,5,13,7,8,112
2.101829,0.012631,1,5,13,8,9,116
2.15667,0.010931,1,5,13,9,10,120
2.521626,0.012598,1,5,13,10,11,124
4.199914,-0.000739,1,5,13,11,12,128
5.064504,3.137414,1,5,13,14,15,132
4.195456,3.14109,1,5,13,15,16,136
2.270391,-3.133772,1,6,14,1,2,140
2.070782,-3.141222,1,6,14,2,3,144
2.437504,-3.138094,1,6,14,3,4,148
3.69896,3.132973,1,6,14,4,5,152
3.924082,0.003058,1,6,14,7,8,156
2.439995,0.003309,1,6,14,8,9,160
2.161668,0.010626,1,6,14,9,10,164
2.188585,0.022853,1,6,14,10,11,168
2.833621,0.015163,1,6,14,11,12,172
4.678156,-0.000117,1,6,14,12,13,176
6.53408,-3.139956,1,6,14,15,16,180
3.281467,-3.136287,1,7,15,1,2,184
2.385033,-3.137092,1,7,15,2,3,188
2.299313,3.136131,1,7,15,3,4,192
2.299021,3.136273,1,7,15,4,5,196
3.87063,-3.137744,1,7,15,5,6,200
3.672902,-0.000531,1,7,15,8,9,204
2.412455,0.01581,1,7,15,9,10,208
2.018746,0.001588,1,7,15,10,11,212
2.273718,0.007517,1,7,15,11,12,216
3.194566,-0.001261,1,7,15,12,13,220
5.885931,0.003283,1,7,15,13,14,224
4.875651,-3.138146,1,8,16,1,2,228
2.969016,-3.138992,1,8,16,2,3,232
2.493802,-3.139391,1,8,16,3,4,236
2.098684,3.127817,1,8,16,4,5,240
2.577684,-3.130174,1,8,16,5,6,244
4.121104,-3.134421,1,8,16,6,7,248
3.812013,0.004827,1,8,16,9,10,252
2.158517,0.011019,1,8,16,10,11,0
1.961358,0.003256,1,8,16,11,12,4
2.183856,-0.002475,1,8,16,12,13,8
3.390166,0.003877,1,8,16,13,14,12
6.669266,0.004931,1,8,16,14,15,16
4.288592,-3.13726,1,9,1,2,3,20
2.801826,-3.136016,1,9,1,3,4,24
2.07191,3.141262,1,9,1,4,5,28
2.268714,-3.134181,1,9,1,5,6,32
2.633756,-3.132144,1,9,1,6,7,36
4.173899,-3.135558,1,9,1,7,8,40
3.389925,0.003388,1,9,1,10,11,44
2.185426,-0.003275,1,9,1,11,12,48
1.934768,0.018033,1,9,1,12,13,52
2.492745,0.001821,1,9,1,13,14,56
4.235357,0.004985,1,9,1,14,15,60
5.013021,0.007053,1,9,1,15,16,64
4.230763,3.133705,1,10,2,3,4,68
2.433939,3.12204,1,10,2,4,5,72
2.267649,-3.133752,1,10,2,5,6,76
2.215506,-3.132508,1,10,2,6,7,80
2.548625,-3.140734,1,10,2,7,8,84
3.867497,-3.137789,1,10,2,8,9,88
3.669739,-0.000709,1,10,2,11,12,92
2.183331,-0.002775,1,10,2,12,13,96
2.23898,-0.00396,1,10,2,13,14,100
3.447054,0.002699,1,10,2,14,15,104
3.586616,0.00834,1,10,2,15,16,108
3.639108,-0.007953,1,11,3,1,2,112
3.98005,-3.139742,1,11,3,4,5,116
2.634475,-3.132069,1,11,3,5,6,120
2.213526,-3.13246,1,11,3,6,7,124
2.242152,3.137287,1,11,3,7,8,128
2.4942,-3.139759,1,11,3,8,9,132
4.199361,3.140905,1,11,3,9,10,136
3.555802,0.001092,1,11,3,12,13,140
2.438238,0.003258,1,11,3,13,14,144
3.218456,0.00691,1,11,3,14,15,148
3.248499,-0.002537,1,11,3,15,16,152
2.1575,0.010596,1,12,4,1,2,156
3.559046,0.00055,1,12,4,2,3,160
4.455805,-3.139468,1,12,4,5,6,164
2.688962,-3.133501,1,12,4,6,7,168
2.239537,3.137261,1,12,4,7,8,172
2.127757,3.139933,1,12,4,8,9,176
2.658858,3.139905,1,12,4,9,10,180
3.921035,-3.138807,1,12,4,10,11,184
3.6416,0.00726,1,12,4,13,14,188
3.554948,0.000792,1,12,4,14,15,192
3.386199,0.003761,1,12,4,15,16,196
1.957849,0.003263,1,13,5,1,2,200
2.212236,0.00912,1,13,5,2,3,204
4.00069,-0.005123,1,13,5,3,4,208
4.118486,-3.134566,1,13,5,6,7,212
2.577974,-3.130584,1,13,5,7,8,216
2.127017,3.140131,1,13,5,8,9,220
2.212049,-3.132379,1,13,5,9,10,224
2.5196,-3.128951,1,13,5,10,11,228
4.254055,3.14022,1,13,5,11,12,232
5.010871,-0.003827,1,13,5,14,15,236
4.142945,-9.5e-05,1,13,5,15,16,240
2.212933,0.009147,1,14,6,1,2,244
1.989175,0.016398,1,14,6,2,3,248
2.325375,0.006089,1,14,6,3,4,252
3.666015,-0.00043,1,14,6,4,5,0
4.002346,3.136671,1,14,6,7,8,4
2.491025,-3.139286,1,14,6,8,9,8
2.238097,3.137788,1,14,6,9,10,12
2.241076,3.137537,1,14,6,10,11,16
2.882494,3.136269,1,14,6,11,12,20
4.786262,3.140305,1,14,6,12,13,24
6.464958,0.002497,1,14,6,15,16,28
3.191924,-0.000814,1,15,7,1,2,32
2.325956,0.006569,1,15,7,2,3,36
2.184051,-0.002479,1,15,7,3,4,40
2.406647,-0.00713,1,15,7,4,5,44
3.811548,0.005058,1,15,7,5,6,48
3.755001,-3.13574,1,15,7,8,9,52
2.494037,-3.139307,1,15,7,9,10,56
2.074369,-3.141539,1,15,7,10,11,60
2.326547,-3.135306,1,15,7,11,12,64
3.220075,-3.134486,1,15,7,12,13,68
5.968964,3.139162,1,15,7,13,14,72
4.846897,-0.001769,1,16,8,1,2,76
2.914384,0.003888,1,16,8,2,3,80
2.384202,0.004699,1,16,8,3,4,84
2.187919,-0.002934,1,16,8,4,5,88
2.494918,0.002177,1,16,8,5,6,92
4.093358,0.00065,1,16,8,6,7,96
3.867207,-3.137516,1,16,8,9,10,100
2.215819,-3.132381,1,16,8,10,11,104
1.96266,-3.138507,1,16,8,11,12,108
2.242469,3.137414,1,16,8,12,13,112
3.5053,-3.139703,1,16,8,13,14,116
6.74967,-3.141514,1,16,8,14,15,120
4.236294,0.004929,1,1,9,2,3,124
2.719755,-0.003051,1,1,9,3,4,128
2.184573,-0.00303,1,1,9,4,5,132
2.184758,-0.003124,1,1,9,5,6,136
2.660997,-0.001731,1,1,9,6,7,140
4.094184,0.000235,1,1,9,7,8,144
3.447295,-3.139256,1,1,9,10,11,148
2.185735,3.138444,1,1,9,11,12,152
1.932994,3.130653,1,1,9,12,13,156
2.523274,-3.129344,1,1,9,13,14,160
4.312894,3.139232,1,1,9,14,15,164
5.070206,-3.135142,1,1,9,15,16,168
4.176375,0.006226,1,2,10,3,4,172
2.549321,0.000933,1,2,10,4,5,176
2.181507,-0.002506,1,2,10,5,6,180
2.211489,0.009496,1,2,10,6,7,184
2.492466,0.00223,1,2,10,7,8,188
3.810973,0.004752,1,2,10,8,9,192
3.724469,3.140233,1,2,10,11,12,196
2.240181,3.137604,1,2,10,12,13,200
2.29513,3.136454,1,2,10,13,14,204
3.447832,-3.138861,1,2,10,14,15,208
3.614214,-3.141391,1,2,10,15,16,212
3.698437,3.132846,1,3,11,1,2,216
3.976591,0.002346,1,3,11,4,5,220
2.581203,0.010941,1,3,11,5,6,224
2.271662,0.007386,1,3,11,6,7,228
2.129109,-0.001515,1,3,11,7,8,232
2.437699,0.003315,1,3,11,8,9,236
4.150142,-0.000324,1,3,11,9,10,240
3.615454,3.141507,1,3,11,12,13,244
2.438674,-3.138344,1,3,11,13,14,248
3.251849,3.139044,1,3,11,14,15,252
3.281793,-3.136113,1,3,11,15,16,0
2.240621,3.1371,1,4,12,1,2,4
3.61365,3.141399,1,4,12,2,3,8
4.399565,0.002938,1,4,12,5,6,12
2.69352,0.007909,1,4,12,6,7,16
2.159135,0.01051,1,4,12,7,8,20
2.075051,-0.000503,1,4,12,8,9,24
2.581967,0.010611,1,4,12,9,10,28
3.838486,-0.003373,1,4,12,10,11,32
3.72326,3.140027,1,4,12,13,14,36
3.55734,-3.140793,1,4,12,14,15,40
3.389352,-3.138016,1,4,12,15,16,44
2.017995,-3.140254,1,5,13,1,2,48
2.326305,-3.13557,1,5,13,2,3,52
4.091315,-3.14105,1,5,13,3,4,56
4.148287,-0.0003,1,5,13,6,7,60
2.493543,0.001938,1,5,13,7,8,64
2.04684,0.014293,1,5,13,8,9,68
2.215506,0.009084,1,5,13,9,10,72
2.491668,0.002113,1,5,13,10,11,76
4.172488,0.006411,1,5,13,11,12,80
5.04297,-3.140187,1,5,13,14,15,84
4.226783,-3.135959,1,5,13,15,16,88
2.272005,-3.1339,1,6,14,1,2,92
2.074457,-3.141587,1,6,14,2,3,96
2.439661,-3.138321,1,6,14,3,4,100
3.753053,3.132368,1,6,14,4,5,104
3.926336,0.002892,1,6,14,7,8,108
2.439237,0.00337,1,6,14,8,9,112
2.186744,-0.002905,1,6,14,9,10,116
2.159359,0.010774,1,6,14,10,11,120
2.807121,0.005653,1,6,14,11,12,124
4.713742,0.005293,1,6,14,12,13,128
6.535217,-3.140055,1,6,14,15,16,132
3.252383,3.138766,1,7,15,1,2,136
2.383124,-3.136959,1,7,15,2,3,140
2.27178,-3.134075,1,7,15,3,4,144
2.49681,-3.139501,1,7,15,4,5,148
3.871304,-3.137843,1,7,15,5,6,152
3.729468,-0.001432,1,7,15,8,9,156
2.440662,0.003384,1,7,15,9,10,160
2.01829,0.001555,1,7,15,10,11,164
2.270498,0.007863,1,7,15,11,12,168
3.138677,-0.000324,1,7,15,12,13,172
5.908647,-0.001678,1,7,15,13,14,176
4.873037,-3.138117,1,8,16,1,2,180
2.971783,-3.139176,1,8,16,2,3,184
2.439019,-3.138217,1,8,16,3,4,188
2.269377,-3.133748,1,8,16,4,5,192
2.549333,-3.14057,1,8,16,5,6,196
4.115159,3.135417,1,8,16,6,7,200
3.775849,-0.00167,1,8,16,9,10,204
2.126309,-0.000996,1,8,16,10,11,208
1.906096,0.004869,1,8,16,11,12,212
2.126409,-0.000954,1,8,16,12,13,216
3.498646,0.002395,1,8,16,13,14,220
6.526,0.001973,1,8,16,14,15,224
4.284984,-3.13708,1,9,1,2,3,228
2.770403,3.137921,1,9,1,3,4,232
2.2667,-3.134043,1,9,1,4,5,236
2.211145,-3.132491,1,9,1,5,6,240
2.747452,-3.134915,1,9,1,6,7,244
4.195593,3.140864,1,9,1,7,8,248
3.38631,0.003536,1,9,1,10,11,252
2.125019,-0.001456,1,9,1,11,12,0
1.845272,0.0067,1,9,1,12,13,4
2.46438,0.013915,1,9,1,13,14,8
4.174448,0.005983,1,9,1,14,15,12
4.978187,0.002035,1,9,1,15,16,16
4.248445,3.140649,1,10,2,3,4,20
2.627921,3.130377,1,10,2,4,5,24
2.212466,-3.13221,1,10,2,5,6,28
2.377318,-3.136514,1,10,2,6,7,32
2.599998,-3.141417,1,10,2,7,8,36
3.862029,-3.137444,1,10,2,8,9,40
3.664706,-0.000411,1,10,2,11,12,44
2.124502,-0.000995,1,10,2,12,13,48
2.211676,0.009402,1,10,2,13,14,52
3.417075,0.011703,1,10,2,14,15,56
3.555819,0.001182,1,10,2,15,16,60
3.692337,-0.008612,1,11,3,1,2,64
4.026111,3.129351,1,11,3,4,5,68
2.632025,-3.131885,1,11,3,5,6,72
2.405843,3.134078,1,11,3,6,7,76
2.265924,-3.133756,1,11,3,7,8,80
2.547942,-3.14072,1,11,3,8,9,84
4.202699,3.140683,1,11,3,9,10,88
3.501819,0.001764,1,11,3,12,13,92
2.378043,0.004928,1,11,3,13,14,96
3.218017,0.006873,1,11,3,14,15,100
3.191951,-0.001486,1,11,3,15,16,104
2.183413,-0.002912,1,12,4,1,2,108
3.555433,0.000829,1,12,4,2,3,112
4.455595,-3.13951,1,12,4,5,6,116
2.799719,-3.135841,1,12,4,6,7,120
2.270134,-3.134215,1,12,4,7,8,124
2.183013,3.138601,1,12,4,8,9,128
2.604079,3.140967,1,12,4,9,10,132
3.922788,-3.138831,1,12,4,10,11,136
3.669048,-0.000878,1,12,4,13,14,140
3.471401,0.010359,1,12,4,14,15,144
3.330699,0.004636,1,12,4,15,16,148
1.958446,0.003112,1,13,5,1,2,152
2.266126,0.007832,1,13,5,2,3,156
4.085875,0.000794,1,13,5,3,4,160
4.200644,3.140754,1,13,5,6,7,164
2.602721,3.141264,1,13,5,7,8,168
2.179081,3.139191,1,13,5,8,9,172
2.236394,3.137785,1,13,5,9,10,176
2.521282,-3.129032,1,13,5,10,11,180
4.257055,3.140003,1,13,5,11,12,184
4.874067,0.00324,1,13,5,14,15,188
4.172272,0.00628,1,13,5,15,16,192
2.212642,0.009199,1,14,6,1,2,196
1.960288,0.003106,1,14,6,2,3,200
2.381959,0.004705,1,14,6,3,4,204
3.69828,-0.008699,1,14,6,4,5,208
4.00197,3.136586,1,14,6,7,8,212
2.51564,3.132368,1,14,6,8,9,216
2.238896,3.137769,1,14,6,9,10,220
2.18287,3.139053,1,14,6,10,11,224
2.854055,-3.136538,1,14,6,11,12,228
4.784553,3.140324,1,14,6,12,13,232
6.468392,0.002379,1,14,6,15,16,236
3.164209,0.008584,1,15,7,1,2,240
2.321839,0.006932,1,15,7,2,3,244
2.211811,0.009712,1,15,7,3,4,248
2.295767,-0.004975,1,15,7,4,5,252
3.80682,0.005303,1,15,7,5,6,0
3.776505,3.139824,1,15,7,8,9,4
2.493932,-3.13926,1,15,7,9,10,8
2.014451,-3.139622,1,15,7,10,11,12
2.380728,-3.136501,1,15,7,11,12,16
3.113879,-3.132618,1,15,7,12,13,20
5.937587,-3.138719,1,15,7,13,14,24
4.846668,-0.001811,1,16,8,1,2,28
2.888461,0.014022,1,16,8,2,3,32
2.382721,0.004822,1,16,8,3,4,36
2.07354,0.00012,1,16,8,4,5,40
2.547751,0.001145,1,16,8,5,6,44
4.086644,0.000963,1,16,8,6,7,48
3.866843,-3.137601,1,16,8,9,10,52
2.184225,3.13893,1,16,8,10,11,56
2.019801,-3.140302,1,16,8,11,12,60
2.186168,3.138792,1,16,8,12,13,64
3.500471,-3.139494,1,16,8,13,14,68
6.576277,-3.140003,1,16,8,14,15,72
4.200426,-0.00097,1,1,9,2,3,76
2.716507,-0.002762,1,1,9,3,4,80
2.07468,-0.000493,1,1,9,4,5,84
2.159897,0.010401,1,1,9,5,6,88
2.660647,-0.001679,1,1,9,6,7,92
4.088046,0.000676,1,1,9,7,8,96
3.444881,-3.138949,1,1,9,10,11,100
2.239242,3.137313,1,1,9,11,12,104
1.904948,-3.137094,1,1,9,12,13,108
2.521933,-3.129225,1,1,9,13,14,112
4.283655,-3.137018,1,1,9,14,15,116
5.041357,-3.140305,1,1,9,15,16,120
4.230202,0.005679,1,2,10,3,4,124
2.494682,0.002093,1,2,10,4,5,128
2.128648,-0.001369,1,2,10,5,6,132
2.270465,0.007594,1,2,10,6,7,136
2.545932,0.001184,1,2,10,7,8,140
3.808447,0.004922,1,2,10,8,9,144
3.721512,3.140455,1,2,10,11,12,148
2.184122,3.138887,1,2,10,12,13,152
2.239686,3.137661,1,2,10,13,14,156
3.421771,-3.130188,1,2,10,14,15,160
3.645218,-3.134207,1,2,10,15,16,164
3.697932,3.132809,1,3,11,1,2,168
3.981345,0.002057,1,3,11,4,5,172
2.634724,0.009608,1,3,11,5,6,176
2.297365,-0.005371,1,3,11,6,7,180
2.185561,-0.002965,1,3,11,7,8,184
2.494987,0.001862,1,3,11,8,9,188
4.207014,-0.00101,1,3,11,9,10,192
3.563523,-3.141022,1,3,11,12,13,196
2.43802,-3.13833,1,3,11,13,14,200
3.250532,3.139022,1,3,11,14,15,204
3.278582,-3.13597,1,3,11,15,16,208
2.217237,-3.132999,1,4,12,1,2,212
3.672311,3.140577,1,4,12,2,3,216
4.341581,0.003747,1,4,12,5,6,220
2.773596,-0.003914,1,4,12,6,7,224
2.215182,0.008868,1,4,12,7,8,228
2.155889,0.010861,1,4,12,8,9,232
2.574874,0.011119,1,4,12,9,10,236
3.864532,0.00371,1,4,12,10,11,240
3.752739,-3.136111,1,4,12,13,14,244
3.524857,3.13514,1,4,12,14,15,248
3.441225,-3.138712,1,4,12,15,16,252
2.014866,-3.139946,1,5,13,1,2,0
2.293286,3.136497,1,5,13,2,3,4
4.14207,-3.141453,1,5,13,3,4,8
4.141875,9.8e-05,1,5,13,6,7,12
2.547367,0.00084,1,5,13,7,8,16
2.126648,-0.001363,1,5,13,8,9,20
2.215787,0.008943,1,5,13,9,10,24
2.437481,0.00332,1,5,13,10,11,28
4.20104,-0.000754,1,5,13,11,12,32
4.904854,3.138759,1,5,13,14,15,36
4.229406,-3.136082,1,5,13,15,16,40
2.240002,3.137787,1,6,14,1,2,44
2.046417,-3.126975,1,6,14,2,3,48
2.408764,3.134147,1,6,14,3,4,52
3.726625,3.140157,1,6,14,4,5,56
3.9782,0.002369,1,6,14,7,8,60
2.491482,0.002386,1,6,14,8,9,64
2.213641,0.009265,1,6,14,9,10,68
2.103986,0.01253,1,6,14,10,11,72
2.801643,0.006028,1,6,14,11,12,76
4.728994,-0.000516,1,6,14,12,13,80
6.528239,-3.139907,1,6,14,15,16,84
3.249523,3.139083,1,7,15,1,2,88
2.383865,-3.137021,1,7,15,2,3,92
2.214922,-3.132404,1,7,15,3,4,96
2.408232,3.134203,1,7,15,4,5,100
3.920818,-3.138177,1,7,15,5,6,104
3.699487,0.006749,1,7,15,8,9,108
2.440007,0.003398,1,7,15,9,10,112
1.936208,0.01853,1,7,15,10,11,116
2.270295,0.007867,1,7,15,11,12,120
3.057321,0.010184,1,7,15,12,13,124
5.889589,0.00316,1,7,15,13,14,128
4.873679,-3.138169,1,8,16,1,2,132
2.968891,-3.138944,1,8,16,2,3,136
2.438364,-3.138203,1,8,16,3,4,140
2.215423,-3.132372,1,8,16,4,5,144
2.604975,3.141531,1,8,16,5,6,148
3.976816,-3.139026,1,8,16,6,7,152
3.837388,-0.002864,1,8,16,9,10,156
2.071882,0.000252,1,8,16,10,11,160
1.934396,0.018626,1,8,16,11,12,164
2.074828,-4e-06,1,8,16,12,13,168
3.44665,0.003019,1,8,16,13,14,172
6.588878,0.001352,1,8,16,14,15,176
4.28952,-3.137406,1,9,1,2,3,180
2.746108,-3.134843,1,9,1,3,4,184
2.239537,3.137261,1,9,1,4,5,188
2.213973,-3.132874,1,9,1,5,6,192
2.607671,3.140758,1,9,1,6,7,196
4.147855,3.14103,1,9,1,7,8,200
3.39219,0.003307,1,9,1,10,11,204
2.160364,0.010255,1,9,1,11,12,208
1.824343,0.022344,1,9,1,12,13,212
2.462078,-0.008847,1,9,1,13,14,216
4.171486,0.006111,1,9,1,14,15,220
4.982843,0.001939,1,9,1,15,16,224
4.287525,-3.136888,1,10,2,3,4,228
2.547846,-3.140584,1,10,2,4,5,232
2.183044,3.138869,1,10,2,5,6,236
2.212351,-3.132341,1,10,2,6,7,240
2.603664,3.141334,1,10,2,7,8,244
3.887211,3.138213,1,10,2,8,9,248
3.664224,-0.000359,1,10,2,11,12,252
2.10099,0.012697,1,10,2,12,13,0
2.211873,0.009397,1,10,2,13,14,4
3.442196,0.003134,1,10,2,14,15,8
3.552196,0.001371,1,10,2,15,16,12
3.637158,-0.007924,1,11,3,1,2,16
4.058857,3.13572,1,11,3,4,5,20
2.69043,-3.133352,1,11,3,5,6,24
2.270049,-3.134078,1,11,3,6,7,28
2.211956,-3.132332,1,11,3,7,8,32
2.548385,-3.140819,1,11,3,8,9,36
4.255195,3.140206,1,11,3,9,10,40
3.501671,0.001811,1,11,3,12,13,44
2.382249,0.004474,1,11,3,13,14,48
3.223876,0.00655,1,11,3,14,15,52
3.222451,0.006664,1,11,3,15,16,56
2.184573,-0.00303,1,12,4,1,2,60
3.58447,-0.007521,1,12,4,2,3,64
4.423226,3.137892,1,12,4,5,6,68
2.714937,3.138907,1,12,4,6,7,72
2.237549,3.137399,1,12,4,7,8,76
2.210657,-3.132434,1,12,4,8,9,80
2.603161,3.141076,1,12,4,9,10,84
3.918254,-3.138679,1,12,4,10,11,88
