BIOZ1_MAG,BIOZ1_PHASE,EXC_FREQ_KHZ,EXC_PIN,GND_PIN,SNS_AP_PIN,SNS_AN_PIN,PACKET_NUMBER
2.631913,-3.131838,1,13,5,10,11,108
4.140396,-3.141476,1,13,5,11,12,112
3.970225,0.002522,1,13,5,14,15,116
2.712311,-0.002364,1,13,5,15,16,120
2.321772,0.006397,1,14,6,1,2,124
2.434126,0.003528,1,14,6,2,3,128
2.689027,0.008538,1,14,6,3,4,132
3.9993,-0.004925,1,14,6,4,5,136
4.084111,-3.140507,1,14,6,7,8,140
2.687246,-3.132885,1,14,6,8,9,144
2.463664,-3.12726,1,14,6,9,10,148
2.267649,-3.133752,1,14,6,10,11,152
2.77215,3.137976,1,14,6,11,12,156
4.058514,3.135814,1,14,6,12,13,160
4.061442,0.008109,1,14,6,15,16,164
2.632386,0.010596,1,15,7,1,2,168
2.379486,0.005388,1,15,7,2,3,172
2.323573,0.006669,1,15,7,3,4,176
2.62865,-0.011052,1,15,7,4,5,180
3.978743,0.002406,1,15,7,5,6,184
4.002554,3.136803,1,15,7,8,9,188
2.800906,-3.135461,1,15,7,9,10,192
2.268577,-3.13364,1,15,7,10,11,196
2.493802,-3.139391,1,15,7,11,12,200
2.659885,3.140422,1,15,7,12,13,204
4.51119,-3.13967,1,15,7,13,14,208
3.976984,0.00252,1,16,8,1,2,212
2.690469,0.008509,1,16,8,2,3,216
2.324479,0.006424,1,16,8,3,4,220
2.352758,-0.006383,1,16,8,4,5,224
2.688686,0.008679,1,16,8,5,6,228
3.981889,0.002094,1,16,8,6,7,232
4.229247,-3.135946,1,16,8,9,10,236
2.633597,-3.131603,1,16,8,10,11,240
2.489388,-3.139027,1,16,8,11,12,244
2.377854,-3.136481,1,16,8,12,13,248
3.049183,-3.130997,1,16,8,13,14,252
4.08628,-3.140625,1,16,8,14,15,0
4.090737,0.000416,1,1,9,2,3,4
2.633645,0.009496,1,1,9,3,4,8
2.380659,0.004555,1,1,9,4,5,12
2.435933,0.003175,1,1,9,5,6,16
2.743206,0.007075,1,1,9,6,7,20
4.084417,0.000813,1,1,9,7,8,24
3.887848,3.137936,1,1,9,10,11,28
2.800984,-3.135776,1,1,9,11,12,32
2.380346,-3.136986,1,1,9,12,13,36
2.688027,-3.133303,1,1,9,13,14,40
2.743451,-3.134522,1,1,9,14,15,44
4.226166,-3.136175,1,1,9,15,16,48
4.055875,0.008406,1,2,10,3,4,52
2.712108,-0.002092,1,2,10,4,5,56
2.433933,0.003712,1,2,10,5,6,60
2.434264,0.003749,1,2,10,6,7,64
2.65916,-0.001246,1,2,10,7,8,68
3.859998,0.004356,1,2,10,8,9,72
4.227578,-3.13579,1,2,10,11,12,76
2.713076,3.139482,1,2,10,12,13,80
2.742898,-3.134108,1,2,10,13,14,84
2.433293,-3.137777,1,2,10,14,15,88
2.854967,-3.136421,1,2,10,15,16,92
4.114578,3.13529,1,3,11,1,2,96
4.028673,0.00175,1,3,11,4,5,100
2.798537,0.006222,1,3,11,5,6,104
2.490802,0.002311,1,3,11,6,7,108
2.322918,0.006415,1,3,11,7,8,112
2.659622,-0.001345,1,3,11,8,9,116
4.170998,0.00643,1,3,11,9,10,120
4.031532,-3.13997,1,3,11,12,13,124
3.081644,-3.141194,1,3,11,13,14,128
2.464094,3.13297,1,3,11,14,15,132
2.548745,-3.140692,1,3,11,15,16,136
2.716609,3.138695,1,4,12,1,2,140
4.1446,3.141431,1,4,12,2,3,144
4.429572,0.008878,1,4,12,5,6,148
2.804213,0.005575,1,4,12,6,7,152
2.325878,0.005943,1,4,12,7,8,156
2.381622,0.004578,1,4,12,8,9,160
2.749056,0.006691,1,4,12,9,10,164
3.928202,0.002552,1,4,12,10,11,168
4.543087,-3.134338,1,4,12,13,14,172
2.71891,3.138604,1,4,12,14,15,176
2.495973,-3.139887,1,4,12,15,16,180
2.439201,-3.138491,1,5,13,1,2,184
2.859089,-3.137081,1,5,13,2,3,188
4.369189,3.138741,1,5,13,3,4,192
4.200467,-0.000791,1,5,13,6,7,196
2.660447,-0.001406,1,5,13,7,8,200
2.326195,0.005981,1,5,13,8,9,204
2.437045,0.003329,1,5,13,9,10,208
2.550423,0.000641,1,5,13,10,11,212
4.063218,0.007906,1,5,13,11,12,216
4.091142,-3.141003,1,5,13,14,15,220
2.801129,-3.135644,1,5,13,15,16,224
2.436221,-3.137887,1,6,14,1,2,228
2.49358,-3.139386,1,6,14,2,3,232
2.748748,-3.134492,1,6,14,3,4,236
4.118974,3.135143,1,6,14,4,5,240
3.981552,0.002189,1,6,14,7,8,244
2.607255,-0.000467,1,6,14,8,9,248
2.381544,0.004804,1,6,14,9,10,252
2.269558,0.007661,1,6,14,10,11,0
2.689381,0.008486,1,6,14,11,12,4
3.979435,0.002307,1,6,14,12,13,8
4.149987,3.141405,1,6,14,15,16,12
2.693038,-3.133673,1,7,15,1,2,16
2.469985,-3.127936,1,7,15,2,3,20
2.410453,3.13384,1,7,15,3,4,24
2.721256,3.138781,1,7,15,4,5,28
4.0694,-3.133769,1,7,15,5,6,32
3.925486,0.003038,1,7,15,8,9,36
2.749486,0.007086,1,7,15,9,10,40
2.270188,0.007825,1,7,15,10,11,44
2.405889,-0.007158,1,7,15,11,12,48
2.606593,-0.000185,1,7,15,12,13,52
4.33938,0.004312,1,7,15,13,14,56
4.032443,-3.139937,1,8,16,1,2,60
2.744961,-3.134283,1,8,16,2,3,64
2.382609,-3.136813,1,8,16,3,4,68
2.405889,3.134435,1,8,16,4,5,72
2.745336,-3.134246,1,8,16,5,6,76
4.033904,-3.139867,1,8,16,6,7,80
4.142654,0.000267,1,8,16,9,10,84
2.548769,0.001079,1,8,16,10,11,88
2.435248,0.003772,1,8,16,11,12,92
2.324687,0.006419,1,8,16,12,13,96
2.772438,-0.003353,1,8,16,13,14,100
4.031742,0.001754,1,8,16,14,15,104
4.146042,3.141233,1,9,1,2,3,108
2.687914,-3.133256,1,9,1,3,4,112
2.435601,-3.138455,1,9,1,4,5,116
2.521921,-3.129315,1,9,1,5,6,120
2.800956,-3.135955,1,9,1,6,7,124
4.147329,3.141171,1,9,1,7,8,128
3.837457,-0.003358,1,9,1,10,11,132
2.714209,-0.002671,1,9,1,11,12,136
2.326173,0.005802,1,9,1,12,13,140
2.46635,0.013782,1,9,1,13,14,144
2.744908,0.006952,1,9,1,14,15,148
4.173526,0.006039,1,9,1,15,16,152
4.145186,3.141558,1,10,2,3,4,156
2.771551,3.138122,1,10,2,4,5,160
2.549644,-3.140801,1,10,2,5,6,164
2.491692,-3.139301,1,10,2,6,7,168
2.717032,3.13909,1,10,2,7,8,172
3.920761,-3.138445,1,10,2,8,9,176
4.177122,0.006217,1,10,2,11,12,180
2.634278,0.009796,1,10,2,12,13,184
2.438686,0.003338,1,10,2,13,14,188
2.437493,0.003409,1,10,2,14,15,192
2.802618,0.00583,1,10,2,15,16,196
4.118197,-0.006619,1,11,3,1,2,200
4.122017,3.134699,1,11,3,4,5,204
2.86061,-3.1372,1,11,3,5,6,208
2.524521,-3.129326,1,11,3,6,7,212
2.438571,-3.138297,1,11,3,7,8,216
2.716661,3.139052,1,11,3,8,9,220
4.260662,3.139912,1,11,3,9,10,224
3.978853,0.002091,1,11,3,12,13,228
2.831633,-0.004998,1,11,3,13,14,232
2.438559,0.003206,1,11,3,14,15,236
2.438444,0.003164,1,11,3,15,16,240
2.635987,0.009358,1,12,4,1,2,244
4.091641,0.000359,1,12,4,2,3,248
4.509872,-3.140102,1,12,4,5,6,252
2.858295,-3.137245,1,12,4,6,7,0
2.441119,-3.138892,1,12,4,7,8,4
2.3853,-3.137502,1,12,4,8,9,8
2.802208,-3.135979,1,12,4,9,10,12
3.976701,-3.139562,1,12,4,10,11,16
4.399337,0.002806,1,12,4,13,14,20
2.718181,-0.002974,1,12,4,14,15,24
2.436471,0.003118,1,12,4,15,16,28
2.382687,0.004554,1,13,5,1,2,32
2.80234,0.005656,1,13,5,2,3,36
4.307749,-0.002072,1,13,5,3,4,40
4.171137,3.134464,1,13,5,6,7,44
2.71495,3.138997,1,13,5,7,8,48
2.380782,-3.136906,1,13,5,8,9,52
2.490568,-3.139366,1,13,5,9,10,56
2.659359,3.140074,1,13,5,10,11,60
4.086413,-3.140851,1,13,5,11,12,64
3.978853,0.002091,1,13,5,14,15,68
2.745528,0.006985,1,13,5,15,16,72
2.354174,-0.006864,1,14,6,1,2,76
2.437584,0.003273,1,14,6,2,3,80
2.68818,0.00851,1,14,6,3,4,84
4.003042,-0.005021,1,14,6,4,5,88
4.031703,-3.140017,1,14,6,7,8,92
2.634736,-3.131896,1,14,6,8,9,96
2.464868,-3.127331,1,14,6,9,10,100
2.352227,3.135177,1,14,6,10,11,104
2.714491,3.139185,1,14,6,11,12,108
4.090258,-3.140857,1,14,6,12,13,112
4.03601,0.001428,1,14,6,15,16,116
2.634924,0.010186,1,15,7,1,2,120
2.435066,0.004045,1,15,7,2,3,124
2.352371,-0.006106,1,15,7,3,4,128
2.688774,-0.012202,1,15,7,4,5,132
3.975396,0.002586,1,15,7,5,6,136
3.973976,-3.138987,1,15,7,8,9,140
2.799919,-3.135352,1,15,7,9,10,144
2.378703,-3.136501,1,15,7,10,11,148
2.434482,-3.137848,1,15,7,11,12,152
2.713446,3.139519,1,15,7,12,13,156
4.197724,3.14115,1,15,7,13,14,160
3.971532,0.002817,1,16,8,1,2,164
2.745091,0.007352,1,16,8,2,3,168
2.325824,0.006348,1,16,8,3,4,172
2.38113,0.004903,1,16,8,4,5,176
2.69214,0.008386,1,16,8,5,6,180
4.088278,0.000896,1,16,8,6,7,184
4.202187,3.140914,1,16,8,9,10,188
2.662476,3.14019,1,16,8,10,11,192
2.465741,3.132889,1,16,8,11,12,196
2.382082,-3.136756,1,16,8,12,13,200
2.774643,3.138017,1,16,8,13,14,204
4.031722,-3.139928,1,16,8,14,15,208
4.0922,0.000396,1,1,9,2,3,212
2.636236,0.009442,1,1,9,3,4,216
2.407528,-0.007822,1,1,9,4,5,220
2.412055,0.015236,1,1,9,5,6,224
2.746238,0.006792,1,1,9,6,7,228
4.120656,0.006819,1,1,9,7,8,232
3.922087,-3.138821,1,1,9,10,11,236
2.772997,3.137825,1,1,9,11,12,240
2.380972,-3.137089,1,1,9,12,13,244
2.494739,-3.139905,1,1,9,13,14,248
2.746497,-3.134717,1,1,9,14,15,252
4.286133,-3.137094,1,1,9,15,16,0
4.035839,0.001475,1,2,10,3,4,4
2.717045,-0.002414,1,2,10,4,5,8
2.437608,0.003451,1,2,10,5,6,12
2.406941,-0.00736,1,2,10,6,7,16
2.772424,-0.003443,1,2,10,7,8,20
3.890847,-0.003474,1,2,10,8,9,24
4.198474,3.141141,1,2,10,11,12,28
2.743865,-3.134217,1,2,10,12,13,32
2.492138,-3.13931,1,2,10,13,14,36
2.438582,-3.138208,1,2,10,14,15,40
2.799419,-3.135343,1,2,10,15,16,44
4.113649,3.135258,1,3,11,1,2,48
4.090584,0.000552,1,3,11,4,5,52
2.80051,0.006005,1,3,11,5,6,56
2.434676,0.003561,1,3,11,6,7,60
2.493239,0.002169,1,3,11,7,8,64
2.659497,-0.001387,1,3,11,8,9,68
4.196205,-0.000512,1,3,11,9,10,72
4.0877,-3.140823,1,3,11,12,13,76
2.745916,-3.134481,1,3,11,13,14,80
2.491353,-3.139338,1,3,11,14,15,84
2.465736,-3.127439,1,3,11,15,16,88
2.718066,3.138665,1,4,12,1,2,92
4.146433,3.141317,1,4,12,2,3,96
4.398593,0.002995,1,4,12,5,6,100
2.803092,0.005642,1,4,12,6,7,104
2.525067,0.012121,1,4,12,7,8,108
2.327103,0.005735,1,4,12,8,9,112
2.746135,0.006928,1,4,12,9,10,116
3.921921,0.002818,1,4,12,10,11,120
4.28708,-3.137151,1,4,12,13,14,124
2.719525,3.138636,1,4,12,14,15,128
2.439511,-3.138632,1,4,12,15,16,132
2.491575,-3.139343,1,5,13,1,2,136
2.856563,-3.136854,1,5,13,2,3,140
4.367443,3.138808,1,5,13,3,4,144
4.087162,0.000822,1,5,13,6,7,148
2.7442,0.007145,1,5,13,7,8,152
2.293383,-0.005143,1,5,13,8,9,156
2.433806,0.00358,1,5,13,9,10,160
2.630999,0.009953,1,5,13,10,11,164
4.032954,0.001514,1,5,13,11,12,168
4.030073,-3.14004,1,5,13,14,15,172
2.742382,-3.134277,1,5,13,15,16,176
2.491599,-3.139164,1,6,14,1,2,180
2.520312,-3.128698,1,6,14,2,3,184
2.742654,-3.134103,1,6,14,3,4,188
4.112954,3.135446,1,6,14,4,5,192
3.971848,0.002634,1,6,14,7,8,196
2.575383,0.011466,1,6,14,8,9,200
2.40859,0.015986,1,6,14,9,10,204
2.323529,0.006312,1,6,14,10,11,208
2.689393,0.008575,1,6,14,11,12,212
4.033865,0.001547,1,6,14,12,13,216
4.172881,-3.135097,1,6,14,15,16,220
2.691834,-3.133649,1,7,15,1,2,224
2.491446,-3.139475,1,7,15,2,3,228
2.411785,-3.125947,1,7,15,3,4,232
2.772411,3.138061,1,7,15,4,5,236
4.0362,-3.140122,1,7,15,5,6,240
3.925505,0.003128,1,7,15,8,9,244
2.692254,0.008339,1,7,15,9,10,248
2.326963,0.006277,1,7,15,10,11,252
2.382733,0.004911,1,7,15,11,12,0
2.605428,-0.000161,1,7,15,12,13,4
4.092665,0.000839,1,7,15,13,14,8
4.061053,3.13578,1,8,16,1,2,12
2.77429,3.138158,1,8,16,2,3,16
2.382396,-3.136808,1,8,16,3,4,20
2.496351,-3.139581,1,8,16,4,5,24
2.746072,-3.13426,1,8,16,5,6,28
4.258079,3.140303,1,8,16,6,7,32
4.202583,-0.000594,1,8,16,9,10,36
2.634055,0.00989,1,8,16,10,11,40
2.383035,0.00477,1,8,16,11,12,44
2.327674,0.006126,1,8,16,12,13,48
2.748399,0.007242,1,8,16,13,14,52
4.09047,0.000868,1,8,16,14,15,56
4.14421,3.141346,1,9,1,2,3,60
2.689936,-3.133431,1,9,1,3,4,64
2.493847,-3.139885,1,9,1,4,5,68
2.470403,-3.128125,1,9,1,5,6,72
2.970257,-3.139552,1,9,1,6,7,76
4.228831,3.133551,1,9,1,7,8,80
3.865204,0.003611,1,9,1,10,11,84
2.715051,-0.002732,1,9,1,11,12,88
2.324839,0.005968,1,9,1,12,13,92
2.407845,-0.007874,1,9,1,13,14,96
2.660647,-0.001679,1,9,1,14,15,100
4.171507,0.0062,1,9,1,15,16,104
4.090797,-3.140909,1,10,2,3,4,108
2.801261,-3.135602,1,10,2,4,5,112
2.492782,-3.139504,1,10,2,5,6,116
2.606678,3.141182,1,10,2,6,7,120
2.801643,-3.135565,1,10,2,7,8,124
3.946671,3.137317,1,10,2,8,9,128
4.142265,0.000182,1,10,2,11,12,132
2.659985,-0.001307,1,10,2,12,13,136
2.435237,0.003683,1,10,2,13,14,140
2.378915,0.005087,1,10,2,14,15,144
2.801143,0.006038,1,10,2,15,16,148
4.087001,-0.013058,1,11,3,1,2,152
4.112527,3.135183,1,11,3,4,5,156
2.885911,3.135802,1,11,3,5,6,160
2.523405,-3.129212,1,11,3,6,7,164
2.491891,-3.139484,1,11,3,7,8,168
2.716405,3.138968,1,11,3,8,9,172
4.257456,3.140087,1,11,3,9,10,176
4.00532,-0.005276,1,11,3,12,13,180
2.691746,0.00817,1,11,3,13,14,184
2.380782,0.004687,1,11,3,14,15,188
2.493438,0.001985,1,11,3,15,16,192
2.638334,0.009219,1,12,4,1,2,196
4.092546,0.000302,1,12,4,2,3,200
4.457587,-3.139534,1,12,4,5,6,204
2.942828,3.134592,1,12,4,6,7,208
2.551863,-3.141297,1,12,4,7,8,212
2.382238,-3.137208,1,12,4,8,9,216
2.805559,-3.136268,1,12,4,9,10,220
4.010538,-3.133223,1,12,4,10,11,224
4.122089,0.006621,1,12,4,13,14,228
2.609182,-0.000912,1,12,4,14,15,232
2.439178,0.002923,1,12,4,15,16,236
2.410582,0.015538,1,13,5,1,2,240
2.804213,0.005575,1,13,5,2,3,244
4.259138,-0.001661,1,13,5,3,4,248
4.316366,3.139188,1,13,5,6,7,252
2.803461,-3.136003,1,13,5,7,8,0
2.380256,-3.136849,1,13,5,8,9,4
2.467035,-3.127647,1,13,5,9,10,8
2.661498,3.14003,1,13,5,10,11,12
4.090371,-3.141172,1,13,5,11,12,16
3.893884,-0.003965,1,13,5,14,15,20
2.742975,0.00717,1,13,5,15,16,24
2.381409,0.004583,1,14,6,1,2,28
2.493438,0.001985,1,14,6,2,3,32
2.690556,0.008283,1,14,6,3,4,36
4.060499,-0.00585,1,14,6,4,5,40
4.145011,-3.141581,1,14,6,7,8,44
2.632742,-3.13181,1,14,6,8,9,48
2.493345,-3.139471,1,14,6,9,10,52
2.381746,-3.136883,1,14,6,10,11,56
2.745309,-3.134424,1,14,6,11,12,60
4.085742,-3.140573,1,14,6,12,13,64
4.033845,0.001457,1,14,6,15,16,68
2.633883,0.010342,1,15,7,1,2,72
2.436898,0.00387,1,15,7,2,3,76
2.324808,0.006551,1,15,7,3,4,80
2.659198,-0.000978,1,15,7,4,5,84
4.030491,0.001816,1,15,7,5,6,88
3.97506,-3.138913,1,15,7,8,9,92
2.743156,-3.134024,1,15,7,9,10,96
2.381444,-3.136742,1,15,7,10,11,100
2.436748,-3.138033,1,15,7,11,12,104
2.743633,-3.134123,1,15,7,12,13,108
4.141175,-3.141307,1,15,7,13,14,112
3.973827,0.002742,1,16,8,1,2,116
2.745711,0.007385,1,16,8,2,3,120
2.324687,0.006419,1,16,8,3,4,124
2.380291,0.005011,1,16,8,4,5,128
2.68928,0.008623,1,16,8,5,6,132
4.30935,-0.001824,1,16,8,6,7,136
4.255416,3.140337,1,16,8,9,10,140
2.690482,-3.132994,1,16,8,10,11,144
2.494013,-3.139485,1,16,8,11,12,148
2.383551,-3.136969,1,16,8,12,13,152
2.859642,-3.136823,1,16,8,13,14,156
4.257878,3.140261,1,16,8,14,15,160
4.123585,0.006691,1,1,9,2,3,164
2.63564,0.00941,1,1,9,3,4,168
2.410214,-0.007927,1,1,9,4,5,172
2.439729,0.002956,1,1,9,5,6,176
2.942593,-0.006817,1,1,9,6,7,180
4.202481,-0.001041,1,1,9,7,8,184
3.923139,-3.138836,1,1,9,10,11,188
2.748435,-3.134934,1,1,9,11,12,192
2.352613,3.134899,1,1,9,12,13,196
2.524283,-3.12941,1,1,9,13,14,200
2.886155,3.135708,1,1,9,14,15,204
4.257976,3.139857,1,1,9,15,16,208
4.037815,0.001404,1,2,10,3,4,212
2.748243,0.007021,1,2,10,4,5,216
2.441178,0.003148,1,2,10,5,6,220
2.607268,-0.000378,1,2,10,6,7,224
2.746898,0.007092,1,2,10,7,8,228
3.869592,0.003864,1,2,10,8,9,232
4.203116,3.140857,1,2,10,11,12,236
2.77365,3.138036,1,2,10,12,13,240
2.522539,-3.128925,1,2,10,13,14,244
2.549669,-3.140622,1,2,10,14,15,248
2.855839,-3.136572,1,2,10,15,16,252
4.170609,3.134605,1,3,11,1,2,0
4.063748,-0.005983,1,3,11,4,5,4
2.803607,0.005721,1,3,11,5,6,8
2.661273,-0.001468,1,3,11,6,7,12
2.467476,0.013936,1,3,11,7,8,16
2.661399,-0.001426,1,3,11,8,9,20
4.200487,-0.000702,1,3,11,9,10,24
4.091142,-3.141003,1,3,11,12,13,28
2.801247,-3.135691,1,3,11,13,14,32
2.465404,3.132851,1,3,11,14,15,36
2.551228,-3.140924,1,3,11,15,16,40
2.747827,-3.134877,1,4,12,1,2,44
4.146958,3.141176,1,4,12,2,3,48
4.457609,0.002148,1,4,12,5,6,52
3.027647,0.001192,1,4,12,6,7,56
2.491984,0.001972,1,4,12,7,8,60
2.381409,0.004583,1,4,12,8,9,64
2.716878,-0.002724,1,4,12,9,10,68
3.922437,0.002766,1,4,12,10,11,72
4.146628,3.14136,1,4,12,13,14,76
2.692101,-3.133475,1,4,12,14,15,80
2.522609,-3.12924,1,4,12,15,16,84
2.493215,-3.139603,1,5,13,1,2,88
2.856294,-3.136939,1,5,13,2,3,92
4.312733,3.139368,1,5,13,3,4,96
4.313139,-0.00214,1,5,13,6,7,100
2.746626,0.006918,1,5,13,7,8,104
2.324348,0.006203,1,5,13,8,9,108
2.382048,0.004568,1,5,13,9,10,112
2.636832,0.009475,1,5,13,10,11,116
4.036331,0.001244,1,5,13,11,12,120
4.091142,-3.141003,1,5,13,14,15,124
2.828517,3.136969,1,5,13,15,16,128
2.493146,-3.139287,1,6,14,1,2,132
2.550245,-3.14059,1,6,14,2,3,136
2.745207,-3.134288,1,6,14,3,4,140
4.058725,3.135945,1,6,14,4,5,144
4.062913,0.008179,1,6,14,7,8,148
2.576763,0.011437,1,6,14,8,9,152
2.37953,0.004894,1,6,14,9,10,156
2.29676,-0.005267,1,6,14,10,11,160
2.689507,0.008528,1,6,14,11,12,164
4.006603,-0.005158,1,6,14,12,13,168
4.119611,-3.134491,1,6,14,15,16,172
2.748927,-3.134944,1,7,15,1,2,176
2.496091,-3.139845,1,7,15,2,3,180
2.384808,-3.137177,1,7,15,3,4,184
2.748475,-3.134666,1,7,15,4,5,188
4.09517,-3.141056,1,7,15,5,6,192
3.924248,0.00301,1,7,15,8,9,196
2.693458,0.008315,1,7,15,9,10,200
2.303763,0.018902,1,7,15,10,11,204
2.383047,0.004859,1,7,15,11,12,208
2.660711,-0.001232,1,7,15,12,13,212
4.089028,0.000976,1,7,15,13,14,216
4.090451,-3.140815,1,8,16,1,2,220
2.800642,-3.135545,1,8,16,2,3,224
2.381544,-3.136789,1,8,16,3,4,228
2.434047,-3.137839,1,8,16,4,5,232
2.744613,-3.134142,1,8,16,5,6,236
4.341314,3.132841,1,8,16,6,7,240
4.175139,0.006556,1,8,16,9,10,244
2.633721,0.010032,1,8,16,10,11,248
2.380078,0.005016,1,8,16,11,12,252
2.325103,0.006409,1,8,16,12,13,0
2.748502,0.007106,1,8,16,13,14,4
4.228755,-0.007548,1,8,16,14,15,8
4.173899,-3.135558,1,9,1,2,3,12
2.721318,3.138376,1,9,1,3,4,16
2.497724,-3.140194,1,9,1,4,5,20
2.497724,-3.140194,1,9,1,5,6,24
2.91854,-3.138724,1,9,1,6,7,28
4.235315,-3.136786,1,9,1,7,8,32
3.86795,0.003483,1,9,1,10,11,36
2.694699,0.007706,1,9,1,11,12,40
2.325549,0.005817,1,9,1,12,13,44
2.46679,0.013772,1,9,1,13,14,48
2.912861,0.003334,1,9,1,14,15,52
4.200781,-0.001064,1,9,1,15,16,56
4.088969,-3.140885,1,10,2,3,4,60
2.83078,3.136836,1,10,2,4,5,64
2.491798,-3.139348,1,10,2,5,6,68
2.577199,-3.130343,1,10,2,6,7,72
2.828025,3.137068,1,10,2,7,8,76
3.947005,3.137222,1,10,2,8,9,80
4.140436,0.000296,1,10,2,11,12,84
2.631234,0.009948,1,10,2,12,13,88
2.466942,0.014082,1,10,2,13,14,92
2.602624,-0.000192,1,10,2,14,15,96
2.800629,0.005958,1,10,2,15,16,100
4.087539,-0.01311,1,11,3,1,2,104
4.151608,3.14116,1,11,3,4,5,108
2.861876,-3.137314,1,11,3,5,6,112
2.662788,3.13987,1,11,3,6,7,116
2.548397,-3.14073,1,11,3,7,8,120
2.7481,-3.134703,1,11,3,8,9,124
4.258398,3.14003,1,11,3,9,10,128
4.035078,0.001306,1,11,3,12,13,132
2.74407,0.007103,1,11,3,13,14,136
2.550651,0.000636,1,11,3,14,15,140
2.467696,0.013931,1,11,3,15,16,144
2.688507,0.00828,1,12,4,1,2,148
4.084934,0.000672,1,12,4,2,3,152
4.562889,-3.140662,1,12,4,5,6,156
3.107183,3.132308,1,12,4,6,7,160
2.548936,-3.140965,1,12,4,7,8,164
2.439074,-3.138622,1,12,4,8,9,168
2.803078,-3.136041,1,12,4,9,10,172
3.977767,-3.139576,1,12,4,10,11,176
4.093065,0.000161,1,12,4,13,14,180
2.862104,0.004095,1,12,4,14,15,184
2.439178,0.002923,1,12,4,15,16,188
2.437596,0.003362,1,13,5,1,2,192
2.804095,0.005622,1,13,5,2,3,196
4.28938,0.004412,1,13,5,3,4,200
4.477917,3.137454,1,13,5,6,7,204
2.856294,-3.136939,1,13,5,7,8,208
2.380256,-3.136849,1,13,5,8,9,212
2.46135,3.133075,1,13,5,9,10,216
2.661598,3.139894,1,13,5,10,11,220
4.091854,-3.141102,1,13,5,11,12,224
4.145712,-0.000176,1,13,5,14,15,228
2.745283,0.00699,1,13,5,15,16,232
2.437251,0.003235,1,14,6,1,2,236
2.49311,0.002037,1,14,6,2,3,240
2.68866,0.008501,1,14,6,3,4,244
4.004454,-0.005129,1,14,6,4,5,248
4.148873,3.14142,1,14,6,7,8,252
2.659972,3.140196,1,14,6,8,9,0
2.436851,-3.13808,1,14,6,9,10,4
2.382598,-3.136902,1,14,6,10,11,8
2.714976,3.139175,1,14,6,11,12,12
4.086817,-3.140677,1,14,6,12,13,16
4.086087,0.000925,1,14,6,15,16,20
2.689445,0.008933,1,15,7,1,2,24
2.438079,0.00371,1,15,7,2,3,28
2.32306,0.006725,1,15,7,3,4,32
2.688939,0.008764,1,15,7,4,5,36
4.033012,0.001782,1,15,7,5,6,40
3.978575,-3.139139,1,15,7,8,9,44
2.749718,-3.134601,1,15,7,9,10,48
2.382408,-3.136719,1,15,7,10,11,52
2.436427,-3.137981,1,15,7,11,12,56
2.769611,3.138429,1,15,7,12,13,60
4.146688,-3.141558,1,15,7,13,14,64
4.032121,0.001839,1,16,8,1,2,68
2.771577,-0.003292,1,16,8,2,3,72
2.324785,0.006372,1,16,8,3,4,76
2.269484,0.007887,1,16,8,4,5,80
2.689052,0.008717,1,16,8,5,6,84
4.173823,0.006528,1,16,8,6,7,88
4.254856,3.140389,1,16,8,9,10,92
2.688319,-3.132951,1,16,8,10,11,96
2.436863,-3.13799,1,16,8,11,12,100
2.38271,-3.13686,1,16,8,12,13,104
2.802896,-3.135589,1,16,8,13,14,108
4.31777,3.139395,1,16,8,14,15,112
4.091834,0.000401,1,1,9,2,3,116
2.662775,-0.001812,1,1,9,3,4,120
2.354385,-0.006869,1,1,9,4,5,124
2.439729,0.002956,1,1,9,5,6,128
2.912108,0.003527,1,1,9,6,7,132
4.17335,0.006086,1,1,9,7,8,136
3.919507,-3.138562,1,1,9,10,11,140
2.746483,-3.134806,1,1,9,11,12,144
2.382462,-3.137123,1,1,9,12,13,148
2.492207,-3.139625,1,1,9,13,14,152
2.941095,-3.129069,1,1,9,14,15,156
4.229942,-3.136224,1,1,9,15,16,160
4.031912,0.001707,1,2,10,3,4,164
2.742964,-0.013106,1,2,10,4,5,168
2.437825,0.003446,1,2,10,5,6,172
2.574056,-0.010378,1,2,10,6,7,176
2.745568,0.007253,1,2,10,7,8,180
3.865461,0.004011,1,2,10,8,9,184
4.204066,3.14089,1,2,10,11,12,188
2.773768,3.137989,1,2,10,12,13,192
2.4927,-3.139278,1,2,10,13,14,196
2.661174,3.140261,1,2,10,14,15,200
2.856201,-3.136713,1,2,10,15,16,204
4.175044,3.134369,1,3,11,1,2,208
4.060842,-0.005944,1,3,11,4,5,212
2.801129,0.005948,1,3,11,5,6,216
2.605403,-0.000339,1,3,11,6,7,220
2.494893,0.001998,1,3,11,7,8,224
2.66091,-0.001505,1,3,11,8,9,228
4.233325,0.005236,1,3,11,9,10,232
4.08626,-3.140714,1,3,11,12,13,236
2.773389,3.137952,1,3,11,13,14,240
2.603076,3.141302,1,3,11,14,15,244
2.496209,-3.139802,1,3,11,15,16,248
2.749289,-3.134996,1,4,12,1,2,252
4.148813,3.141151,1,4,12,2,3,0
4.510297,0.001575,1,4,12,5,6,4
2.968192,0.002437,1,4,12,6,7,8
2.493414,0.001806,1,4,12,7,8,12
2.409454,-0.007955,1,4,12,8,9,16
2.748319,0.006705,1,4,12,9,10,20
3.923323,0.002799,1,4,12,10,11,24
4.121935,-3.134835,1,4,12,13,14,28
2.918308,-3.13854,1,4,12,14,15,32
2.495316,-3.139783,1,4,12,15,16,36
2.494987,-3.139731,1,5,13,1,2,40
2.857073,-3.136864,1,5,13,2,3,44
4.33893,-3.137544,1,5,13,3,4,48
4.371327,-0.002923,1,5,13,6,7,52
2.774733,-0.003802,1,5,13,7,8,56
2.382261,0.004563,1,5,13,8,9,60
2.352934,-0.006656,1,5,13,9,10,64
2.608175,-0.000576,1,5,13,10,11,68
4.031873,0.001528,1,5,13,11,12,72
4.204757,3.140612,1,5,13,14,15,76
2.802604,-3.135852,1,5,13,15,16,80
2.491822,-3.139169,1,6,14,1,2,84
2.548757,-3.140603,1,6,14,2,3,88
2.804017,-3.135655,1,6,14,3,4,92
4.090816,-3.140819,1,6,14,4,5,96
4.062187,0.008188,1,6,14,7,8,100
2.636039,0.009715,1,6,14,8,9,104
2.32694,0.006098,1,6,14,9,10,108
2.326524,0.006108,1,6,14,10,11,112
2.634514,0.009791,1,6,14,11,12,116
4.034396,0.001495,1,6,14,12,13,120
4.146884,-3.141515,1,6,14,15,16,124
2.747957,-3.134835,1,7,15,1,2,128
2.496326,-3.13976,1,7,15,2,3,132
2.409489,3.133906,1,7,15,3,4,136
2.773024,3.138004,1,7,15,4,5,140
4.091894,-3.140923,1,7,15,5,6,144
3.92495,0.003001,1,7,15,8,9,148
2.717544,-0.002334,1,7,15,9,10,152
2.325934,0.00639,1,7,15,10,11,156
2.327258,0.006135,1,7,15,11,12,160
2.661061,-0.001284,1,7,15,12,13,164
4.087394,0.001042,1,7,15,13,14,168
4.031192,-3.139876,1,8,16,1,2,172
2.803515,-3.135645,1,8,16,2,3,176
2.381869,-3.136751,1,8,16,3,4,180
2.326645,-3.135353,1,8,16,4,5,184
2.829689,3.137171,1,8,16,5,6,188
4.171607,-3.134946,1,8,16,6,7,192
4.19737,-0.000348,1,8,16,9,10,196
2.631853,0.010159,1,8,16,10,11,200
2.32294,0.006594,1,8,16,11,12,204
2.325409,0.006358,1,8,16,12,13,208
2.743414,0.007653,1,8,16,13,14,212
4.033353,0.001688,1,8,16,14,15,216
4.196697,3.140761,1,9,1,2,3,220
2.713967,3.138927,1,9,1,3,4,224
2.322873,-3.135534,1,9,1,4,5,228
2.492195,-3.139715,1,9,1,5,6,232
2.857798,-3.137146,1,9,1,6,7,236
4.288209,-3.137255,1,9,1,7,8,240
3.86435,0.003668,1,9,1,10,11,244
2.635405,0.009414,1,9,1,11,12,248
2.326589,0.005792,1,9,1,12,13,252
2.467985,0.013611,1,9,1,13,14,0
2.803552,0.005364,1,9,1,14,15,4
4.176334,0.006048,1,9,1,15,16,8
4.092413,-3.141065,1,10,2,3,4,12
2.827534,3.137167,1,10,2,4,5,16
2.547391,-3.140574,1,10,2,5,6,20
2.546506,-3.140376,1,10,2,6,7,24
2.797657,-3.135398,1,10,2,7,8,28
3.941965,3.137605,1,10,2,8,9,32
4.1417,0.000145,1,10,2,11,12,36
2.657498,-0.001212,1,10,2,12,13,40
2.464103,0.014323,1,10,2,13,14,44
2.436095,0.003574,1,10,2,14,15,48
2.74264,0.0074,1,10,2,15,16,52
4.057236,-0.005807,1,11,3,1,2,56
4.112646,-3.13431,1,11,3,4,5,60
2.907244,-3.137528,1,11,3,5,6,64
2.630986,-3.131729,1,11,3,6,7,68
2.547044,-3.140611,1,11,3,7,8,72
2.768726,3.138311,1,11,3,8,9,76
4.305849,3.139634,1,11,3,9,10,80
4.02491,0.001845,1,11,3,12,13,84
2.742022,0.007367,1,11,3,13,14,88
2.40564,-0.007421,1,11,3,14,15,92
2.433601,0.003674,1,11,3,15,16,96
2.690176,0.008156,1,12,4,1,2,100
4.085644,0.000573,1,12,4,2,3,104
4.507074,-3.139979,1,12,4,5,6,108
3.02227,-3.140125,1,12,4,6,7,112
2.520713,-3.129065,1,12,4,7,8,116
2.460228,3.13292,1,12,4,8,9,120
2.799233,-3.135742,1,12,4,9,10,124
3.973171,-3.139424,1,12,4,10,11,128
4.058483,0.007879,1,12,4,13,14,132
2.685063,0.008573,1,12,4,14,15,136
2.405763,0.015781,1,12,4,15,16,140
2.433578,0.003496,1,13,5,1,2,144
2.799878,0.005973,1,13,5,2,3,148
4.309855,-0.002144,1,13,5,3,4,152
4.336036,-3.137463,1,13,5,6,7,156
2.799497,-3.135658,1,13,5,7,8,160
2.43779,-3.138414,1,13,5,8,9,164
2.380682,-3.136859,1,13,5,9,10,168
2.660897,3.139998,1,13,5,10,11,172
4.119919,-3.134764,1,13,5,11,12,176
4.176531,0.00609,1,13,5,14,15,180
2.690556,0.008283,1,13,5,15,16,184
2.440821,0.002931,1,14,6,1,2,188
2.495762,0.0018,1,14,6,2,3,192
2.716176,-0.002531,1,14,6,3,4,196
4.004643,-0.005087,1,14,6,4,5,200
4.086433,-3.140761,1,14,6,7,8,204
2.688193,-3.132993,1,14,6,8,9,208
2.376793,-3.136457,1,14,6,9,10,212
2.375322,-3.136335,1,14,6,10,11,216
2.712095,3.139411,1,14,6,11,12,220
4.084111,-3.140507,1,14,6,12,13,224
4.084091,0.000996,1,14,6,15,16,228
2.685417,0.009371,1,15,7,1,2,232
2.463387,0.014742,1,15,7,2,3,236
2.321206,0.006857,1,15,7,3,4,240
2.630222,0.010282,1,15,7,4,5,244
4.029771,0.001825,1,15,7,5,6,248
3.978555,-3.139229,1,15,7,8,9,252
2.772059,3.138202,1,15,7,9,10,0
2.37839,-3.136449,1,15,7,10,11,4
2.38019,-3.136534,1,15,7,11,12,8
2.771434,3.138169,1,15,7,12,13,12
4.140281,-3.141161,1,15,7,13,14,16
4.001783,0.009383,1,16,8,1,2,20
2.741083,0.007654,1,16,8,2,3,24
2.323136,0.0065,1,16,8,3,4,28
2.321391,0.006674,1,16,8,4,5,32
2.765933,-0.002914,1,16,8,5,6,36
4.083958,0.001222,1,16,8,6,7,40
4.279414,-3.136293,1,16,8,9,10,44
2.688092,-3.132857,1,16,8,10,11,48
2.376615,-3.136185,1,16,8,11,12,52
2.376504,-3.136227,1,16,8,12,13,56
2.796567,-3.135154,1,16,8,13,14,60
4.082309,-3.140394,1,16,8,14,15,64
4.084397,0.000724,1,1,9,2,3,68
2.660884,-0.001684,1,1,9,3,4,72
2.297678,0.018911,1,1,9,4,5,76
2.491106,0.002081,1,1,9,5,6,80
2.768933,-0.003554,1,1,9,6,7,84
4.196757,-0.000564,1,1,9,7,8,88
3.920539,-3.138665,1,1,9,10,11,92
2.714593,3.139049,1,1,9,11,12,96
2.382036,-3.137114,1,1,9,12,13,100
2.52306,-3.129249,1,1,9,13,14,104
2.801471,-3.135875,1,1,9,14,15,108
4.230498,-3.136276,1,1,9,15,16,112
4.036029,0.001518,1,2,10,3,4,116
2.62991,-0.011301,1,2,10,4,5,120
2.494682,0.002093,1,2,10,5,6,124
2.492923,0.00231,1,2,10,6,7,128
2.775126,-0.003675,1,2,10,7,8,132
3.867025,0.004034,1,2,10,8,9,136
4.199777,3.141079,1,2,10,11,12,140
2.773037,3.138093,1,2,10,12,13,144
2.49236,-3.139315,1,2,10,13,14,148
2.492794,-3.139414,1,2,10,14,15,152
2.826537,3.137275,1,2,10,15,16,156
4.144025,3.128055,1,3,11,1,2,160
4.029903,0.0016,1,3,11,4,5,164
2.909566,0.003932,1,3,11,5,6,168
2.491798,0.002245,1,3,11,6,7,172
2.436622,0.003428,1,3,11,7,8,176
2.691291,0.008358,1,3,11,8,9,180
4.259138,-0.001661,1,3,11,9,10,184
4.092972,-3.141027,1,3,11,12,13,188
2.772659,3.138056,1,3,11,13,14,192
2.492454,-3.139452,1,3,11,14,15,196
2.522527,-3.129014,1,3,11,15,16,200
2.773114,3.137778,1,4,12,1,2,204
4.145691,3.141327,1,4,12,2,3,208
4.485821,0.008085,1,4,12,5,6,212
2.858941,0.00438,1,4,12,6,7,216
2.439293,0.002965,1,4,12,7,8,220
2.383303,0.00436,1,4,12,8,9,224
2.717222,-0.002866,1,4,12,9,10,228
3.922973,0.002804,1,4,12,10,11,232
4.150122,3.141179,1,4,12,13,14,236
2.771146,3.137906,1,4,12,14,15,240
2.493754,-3.139749,1,4,12,15,16,244
2.49332,-3.13965,1,5,13,1,2,248
2.888025,-3.127876,1,5,13,2,3,252
4.371512,3.138623,1,5,13,3,4,0
4.198986,-0.000682,1,5,13,6,7,4
2.717134,-0.00264,1,5,13,7,8,8
2.381521,0.004625,1,5,13,8,9,12
2.382272,0.004653,1,5,13,9,10,16
2.605378,-0.000518,1,5,13,10,11,20
4.032423,0.001566,1,5,13,11,12,24
4.034016,-3.140183,1,5,13,14,15,28
2.771303,3.138127,1,5,13,15,16,32
2.493146,-3.139287,1,6,14,1,2,36
2.547979,-3.140452,1,6,14,2,3,40
2.772789,3.138098,1,6,14,3,4,44
4.061073,3.135869,1,6,14,4,5,48
4.092626,0.00066,1,6,14,7,8,52
2.661061,-0.001284,1,6,14,8,9,56
2.356902,0.017143,1,6,14,9,10,60
2.324774,0.006283,1,6,14,10,11,64
2.634167,0.009843,1,6,14,11,12,68
4.003946,-0.004988,1,6,14,12,13,72
4.14209,-3.141363,1,6,14,15,16,76
2.769063,3.138081,1,7,15,1,2,80
2.546362,-3.140597,1,7,15,2,3,84
2.435866,-3.138103,1,7,15,3,4,88
2.714262,3.139279,1,7,15,4,5,92
4.111431,-3.133981,1,7,15,5,6,96
3.921646,0.003181,1,7,15,8,9,100
2.689647,0.00866,1,7,15,9,10,104
2.325103,0.006409,1,7,15,10,11,108
2.32366,0.006532,1,7,15,11,12,112
2.684295,0.00908,1,7,15,12,13,116
4.086319,0.001146,1,7,15,13,14,120
4.060354,-3.13347,1,8,16,1,2,124
2.801525,-3.135517,1,8,16,2,3,128
2.435557,-3.137962,1,8,16,3,4,132
2.348593,3.135573,1,8,16,4,5,136
2.798183,-3.135229,1,8,16,5,6,140
4.198297,3.141188,1,8,16,6,7,144
4.255236,-0.001208,1,8,16,9,10,148
2.63184,0.01007,1,8,16,10,11,152
2.324589,0.006466,1,8,16,11,12,156
2.323049,0.006636,1,8,16,12,13,160
2.745336,0.007347,1,8,16,13,14,164
4.090297,0.000915,1,8,16,14,15,168
4.170762,-3.135383,1,9,1,2,3,172
2.715422,3.138898,1,9,1,3,4,176
2.382013,-3.137293,1,9,1,4,5,180
2.547127,-3.140837,1,9,1,5,6,184
2.884472,3.135695,1,9,1,6,7,188
4.282911,-3.136919,1,9,1,7,8,192
3.863171,0.003819,1,9,1,10,11,196
2.657585,-0.001438,1,9,1,11,12,200
2.320421,0.006384,1,9,1,12,13,204
2.380021,0.00457,1,9,1,13,14,208
2.714822,-0.002638,1,9,1,14,15,212
4.142904,-0.000274,1,9,1,15,16,216
4.084628,-3.140648,1,10,2,3,4,220
2.743594,-3.13439,1,10,2,4,5,224
2.576061,-3.13023,1,10,2,5,6,228
2.548062,-3.140678,1,10,2,6,7,232
2.85392,-3.13658,1,10,2,7,8,236
3.945447,3.137378,1,10,2,8,9,240
4.14172,0.000234,1,10,2,11,12,244
2.602062,-4.6e-05,1,10,2,12,13,248
2.409325,0.015835,1,10,2,13,14,252
2.410923,0.015665,1,10,2,14,15,0
2.802736,0.005783,1,10,2,15,16,4
4.058151,-0.005774,1,11,3,1,2,8
4.090218,-3.141036,1,11,3,4,5,12
2.939357,3.135149,1,11,3,5,6,16
2.548169,-3.140725,1,11,3,6,7,20
2.548397,-3.14073,1,11,3,7,8,24
2.743478,-3.134343,1,11,3,8,9,28
4.342399,-3.137677,1,11,3,9,10,32
4.030263,0.001595,1,11,3,12,13,36
2.71472,-0.002502,1,11,3,13,14,40
2.379217,0.004946,1,11,3,14,15,44
2.437802,0.003268,1,11,3,15,16,48
2.692911,0.007877,1,12,4,1,2,52
4.088006,0.000497,1,12,4,2,3,56
4.567978,-3.140768,1,12,4,5,6,60
2.916618,-3.138464,1,12,4,6,7,64
2.577379,-3.130706,1,12,4,7,8,68
2.494293,-3.139895,1,12,4,8,9,72
2.77052,3.137874,1,12,4,9,10,76
4.012016,3.135688,1,12,4,10,11,80
4.065682,0.007514,1,12,4,13,14,84
2.689455,0.008171,1,12,4,14,15,88
2.438408,0.002896,1,12,4,15,16,92
2.436083,0.003485,1,13,5,1,2,96
2.798247,0.005959,1,13,5,2,3,100
4.337543,0.003932,1,13,5,3,4,104
4.253475,3.140183,1,13,5,6,7,108
2.828503,3.136879,1,13,5,7,8,112
2.435522,-3.138229,1,13,5,8,9,116
2.434767,-3.138168,1,13,5,9,10,120
2.631678,-3.131833,1,13,5,10,11,124
4.115564,-3.134438,1,13,5,11,12,128
3.976029,0.002219,1,13,5,14,15,132
2.719653,-0.002914,1,13,5,15,16,136
2.438226,0.003169,1,14,6,1,2,140
2.492336,0.002099,1,14,6,2,3,144
2.744948,0.00722,1,14,6,3,4,148
4.005528,-0.005144,1,14,6,4,5,152
4.142985,-3.141509,1,14,6,7,8,156
2.745193,-3.134377,1,14,6,8,9,160
2.436942,-3.138216,1,14,6,9,10,164
2.324359,-3.1353,1,14,6,10,11,168
2.717032,3.13909,1,14,6,11,12,172
4.059068,3.135851,1,14,6,12,13,176
4.062874,0.008,1,14,6,15,16,180
2.688017,0.009051,1,15,7,1,2,184
2.465459,0.014563,1,15,7,2,3,188
2.379877,0.00511,1,15,7,3,4,192
2.601732,9.5e-05,1,15,7,4,5,196
4.031552,0.001712,1,15,7,5,6,200
3.997048,3.137011,1,15,7,8,9,204
2.774656,3.138107,1,15,7,9,10,208
2.382071,-3.136846,1,15,7,10,11,212
2.408764,3.134147,1,15,7,11,12,216
2.74313,-3.134202,1,15,7,12,13,220
4.144485,-3.141439,1,15,7,13,14,224
4.032121,0.001839,1,16,8,1,2,228
2.746317,0.007328,1,16,8,2,3,232
2.381343,0.004898,1,16,8,3,4,236
2.348924,-0.005893,1,16,8,4,5,240
2.743041,0.007616,1,16,8,5,6,244
4.19272,-0.000155,1,16,8,6,7,248
4.307063,3.139887,1,16,8,9,10,252
2.656812,3.140573,1,16,8,10,11,0
2.403123,3.134676,1,16,8,11,12,4
2.352121,-3.123892,1,16,8,12,13,8
2.797933,-3.135225,1,16,8,13,14,12
4.083037,-3.140403,1,16,8,14,15,16
4.090006,0.000425,1,1,9,2,3,20
2.660409,-0.001674,1,1,9,3,4,24
2.38235,0.004427,1,1,9,4,5,28
2.492207,0.001967,1,1,9,5,6,32
2.88488,-0.005771,1,1,9,6,7,36
4.205468,-0.00117,1,1,9,7,8,40
3.949064,3.136925,1,1,9,10,11,44
2.715779,3.138846,1,1,9,11,12,48
2.355826,-3.124604,1,1,9,12,13,52
2.468451,-3.127813,1,1,9,13,14,56
2.746122,-3.134754,1,1,9,14,15,60
4.251977,3.140291,1,1,9,15,16,64
4.031722,0.001665,1,2,10,3,4,68
2.661283,0.01993,1,2,10,4,5,72
2.548302,0.000999,1,2,10,5,6,76
2.572811,-0.010218,1,2,10,6,7,80
2.773226,0.016869,1,2,10,7,8,84
3.919398,0.003346,1,2,10,8,9,88
4.255236,3.140384,1,2,10,11,12,92
2.769234,3.138391,1,2,10,12,13,96
2.490159,-3.139089,1,2,10,13,14,100
2.490487,-3.13914,1,2,10,14,15,104
2.829719,-3.12622,1,2,10,15,16,108
4.14244,-3.141457,1,3,11,1,2,112
4.057808,-0.00568,1,3,11,4,5,116
2.857315,0.004635,1,3,11,5,6,120
2.602514,-0.000145,1,3,11,6,7,124
2.491575,0.00225,1,3,11,7,8,128
2.689621,0.008481,1,3,11,8,9,132
4.28678,0.004804,1,3,11,9,10,136
4.086625,-3.140719,1,3,11,12,13,140
2.745555,-3.134429,1,3,11,13,14,144
2.460056,3.133282,1,3,11,14,15,148
2.489703,-3.139168,1,3,11,15,16,152
2.742485,-3.134413,1,4,12,1,2,156
4.113435,3.135126,1,4,12,2,3,160
4.50752,0.001788,1,4,12,5,6,164
2.967006,0.002503,1,4,12,6,7,168
2.49298,0.001906,1,4,12,7,8,172
2.380133,0.004612,1,4,12,8,9,176
2.741867,0.007147,1,4,12,9,10,180
3.94313,-0.004317,1,4,12,10,11,184
4.142575,3.141502,1,4,12,13,14,188
2.713394,3.139162,1,4,12,14,15,192
2.491094,-3.139601,1,4,12,15,16,196
2.490568,-3.139366,1,5,13,1,2,200
2.851389,-3.136443,1,5,13,2,3,204
4.419779,3.138382,1,5,13,3,4,208
4.220061,0.005987,1,5,13,6,7,212
2.76614,-0.003186,1,5,13,7,8,216
2.378892,0.004909,1,5,13,8,9,220
2.408453,0.015765,1,5,13,9,10,224
2.575589,0.011283,1,5,13,10,11,228
4.086797,0.000826,1,5,13,11,12,232
4.030812,-3.13996,1,5,13,14,15,236
2.798642,-3.135507,1,5,13,15,16,240
2.491271,-3.139113,1,6,14,1,2,244
2.547523,-3.140442,1,6,14,2,3,248
2.800037,-3.135399,1,6,14,3,4,252
4.089201,-3.140664,1,6,14,4,5,0
4.062339,0.008052,1,6,14,7,8,4
2.660235,-0.001223,1,6,14,8,9,8
2.380604,0.00496,1,6,14,9,10,12
2.268673,0.007906,1,6,14,10,11,16
2.659985,-0.001307,1,6,14,11,12,20
4.033504,0.001551,1,6,14,12,13,24
4.145051,-3.141402,1,6,14,15,16,28
2.770052,3.138062,1,7,15,1,2,32
2.518725,-3.128753,1,7,15,2,3,36
2.434699,-3.137853,1,7,15,3,4,40
2.66011,3.140328,1,7,15,4,5,44
4.083938,-3.14046,1,7,15,5,6,48
3.920965,0.00328,1,7,15,8,9,52
2.769989,-0.003127,1,7,15,9,10,56
2.269985,0.00783,1,7,15,10,11,60
2.379139,0.005172,1,7,15,11,12,64
2.577454,0.011423,1,7,15,12,13,68
4.091029,0.000905,1,7,15,13,14,72
4.035649,-3.14016,1,8,16,1,2,76
2.797802,-3.135267,1,8,16,2,3,80
2.435569,-3.137872,1,8,16,3,4,84
2.437722,-3.138099,1,8,16,4,5,88
2.802882,-3.135678,1,8,16,5,6,92
4.23058,-3.135918,1,8,16,6,7,96
4.258079,-0.001289,1,8,16,9,10,100
2.604509,-5.2e-05,1,8,16,10,11,104
2.382845,0.004954,1,8,16,11,12,108
2.327466,0.00613,1,8,16,12,13,112
2.717301,-0.002329,1,8,16,13,14,116
3.980354,0.002429,1,8,16,14,15,120
4.145867,3.14128,1,9,1,2,3,124
2.744057,-3.134579,1,9,1,3,4,128
2.435922,-3.138507,1,9,1,4,5,132
2.550734,-3.141183,1,9,1,5,6,136
2.941467,-3.129211,1,9,1,6,7,140
4.254753,3.139942,1,9,1,7,8,144
3.891796,-0.003935,1,9,1,10,11,148
2.690176,0.008156,1,9,1,11,12,152
2.325439,0.005774,1,9,1,12,13,156
2.437457,0.003141,1,9,1,13,14,160
2.691353,0.007953,1,9,1,14,15,164
4.202283,-0.001083,1,9,1,15,16,168
4.1187,-3.134434,1,10,2,3,4,172
2.718592,3.138924,1,10,2,4,5,176
2.548062,-3.140678,1,10,2,5,6,180
2.631939,-3.131659,1,10,2,6,7,184
2.857073,-3.136864,1,10,2,7,8,188
3.97588,-3.139237,1,10,2,8,9,192
4.203116,-0.000736,1,10,2,11,12,196
2.659272,-0.001293,1,10,2,12,13,200
2.436736,0.003471,1,10,2,13,14,204
2.436083,0.003485,1,10,2,14,15,208
2.740208,0.007537,1,10,2,15,16,212
4.081416,-0.012671,1,11,3,1,2,216
4.084609,-3.140737,1,11,3,4,5,220
2.965836,-3.138934,1,11,3,5,6,224
2.659134,3.140168,1,11,3,6,7,228
2.576375,-3.130461,1,11,3,7,8,232
2.74322,-3.134428,1,11,3,8,9,236
4.361251,3.139063,1,11,3,9,10,240
3.998061,-0.004864,1,11,3,12,13,244
2.714491,-0.002408,1,11,3,13,14,248
2.377206,0.005036,1,11,3,14,15,252
2.435225,0.003594,1,11,3,15,16,0
2.685655,0.008516,1,12,4,1,2,4
4.089102,0.000482,1,12,4,2,3,8
4.562504,-3.140568,1,12,4,5,6,12
3.021603,-3.140068,1,12,4,6,7,16
2.576241,-3.130592,1,12,4,7,8,20
2.436701,-3.13839,1,12,4,8,9,24
2.857287,-3.137137,1,12,4,9,10,28
4.033066,-3.140394,1,12,4,10,11,32
4.085663,0.000662,1,12,4,13,14,36
2.632606,0.009651,1,12,4,14,15,40
2.438099,0.003037,1,12,4,15,16,44
2.436713,0.003292,1,13,5,1,2,48
2.853518,0.004886,1,13,5,2,3,52
4.361619,-0.002623,1,13,5,3,4,56
4.306638,3.139713,1,13,5,6,7,60
2.854282,-3.136721,1,13,5,7,8,64
2.434229,-3.138111,1,13,5,8,9,68
2.492887,-3.139551,1,13,5,9,10,72
2.63507,-3.132037,1,13,5,10,11,76
4.145516,3.141374,1,13,5,11,12,80
3.953312,0.009546,1,13,5,14,15,84
2.745412,0.007032,1,13,5,15,16,88
2.41251,0.015405,1,14,6,1,2,92
2.492782,0.002089,1,14,6,2,3,96
2.7481,0.006889,1,14,6,3,4,100
4.034186,0.001363,1,14,6,4,5,104
4.1439,-3.141566,1,14,6,7,8,108
2.716176,3.139062,1,14,6,8,9,112
2.490791,-3.139371,1,14,6,9,10,116
2.295033,3.136501,1,14,6,10,11,120
2.717748,3.138986,1,14,6,11,12,124
4.090065,-3.140899,1,14,6,12,13,128
4.063792,0.008033,1,14,6,15,16,132
2.718786,-0.002179,1,15,7,1,2,136
2.438733,0.003695,1,15,7,2,3,140
2.43731,0.003682,1,15,7,3,4,144
2.634539,0.00997,1,15,7,4,5,148
4.034605,0.001626,1,15,7,5,6,152
3.979267,-3.139238,1,15,7,8,9,156
2.857988,-3.136747,1,15,7,9,10,160
2.328189,-3.135524,1,15,7,10,11,164
2.462797,3.133177,1,15,7,11,12,168
2.717531,3.139169,1,15,7,12,13,172
4.174942,-3.135079,1,15,7,13,14,176
4.004962,0.009162,1,16,8,1,2,180
2.775091,0.016878,1,16,8,2,3,184
2.378714,0.005181,1,16,8,3,4,188
2.380716,0.005002,1,16,8,4,5,192
2.743994,0.007418,1,16,8,5,6,196
4.090085,0.000783,1,16,8,6,7,200
4.339584,-3.137239,1,16,8,9,10,204
2.634625,-3.131848,1,16,8,10,11,208
2.466954,-3.127421,1,16,8,11,12,212
2.383462,-3.136832,1,16,8,12,13,216
2.804254,-3.135749,1,16,8,13,14,220
4.146864,3.141581,1,16,8,14,15,224
4.091449,0.000317,1,1,9,2,3,228
2.69172,0.007991,1,1,9,3,4,232
2.380871,0.00455,1,1,9,4,5,236
2.467893,0.013748,1,1,9,5,6,240
2.772006,-0.003748,1,1,9,6,7,244
4.197664,-0.00071,1,1,9,7,8,248
3.945947,3.137237,1,1,9,10,11,252
2.743322,-3.134564,1,1,9,11,12,0
2.381185,-3.137094,1,1,9,12,13,4
2.491317,-3.139606,1,1,9,13,14,8
2.800233,-3.135761,1,1,9,14,15,12
4.200051,3.140628,1,1,9,15,16,16
4.031552,0.001712,1,2,10,3,4,20
2.66056,-0.001453,1,2,10,4,5,24
2.491037,0.002396,1,2,10,5,6,28
2.4927,0.002315,1,2,10,6,7,32
2.772294,-0.003485,1,2,10,7,8,36
3.921997,0.003176,1,2,10,8,9,40
4.259,3.140157,1,2,10,11,12,44
2.744306,3.128415,1,2,10,12,13,48
2.49147,-3.139296,1,2,10,13,14,52
2.436416,-3.13807,1,2,10,14,15,56
2.800892,-3.13555,1,2,10,15,16,60
4.14383,3.128013,1,3,11,1,2,64
4.060671,-0.005897,1,3,11,4,5,68
2.889833,0.013682,1,3,11,5,6,72
2.549296,0.000754,1,3,11,6,7,76
2.468009,0.01379,1,3,11,7,8,80
2.63543,0.009593,1,3,11,8,9,84
4.310281,-0.00197,1,3,11,9,10,88
4.089334,-3.140889,1,3,11,12,13,92
2.773754,3.1379,1,3,11,13,14,96
2.436622,-3.138164,1,3,11,14,15,100
2.493555,-3.139565,1,3,11,15,16,104
2.801443,-3.136054,1,4,12,1,2,108
4.1424,3.141549,1,4,12,2,3,112
4.454444,0.002276,1,4,12,5,6,116
2.940102,-0.006726,1,4,12,6,7,120
2.521827,0.012415,1,4,12,7,8,124
2.355107,0.017139,1,4,12,8,9,128
2.799351,0.005804,1,4,12,9,10,132
4.007351,0.008592,1,4,12,10,11,136
4.142595,3.141591,1,4,12,13,14,140
2.717836,3.13876,1,4,12,14,15,144
2.491984,-3.139621,1,4,12,15,16,148
2.465284,-3.127519,1,5,13,1,2,152
2.854671,-3.136684,1,5,13,2,3,156
4.450343,-3.138953,1,5,13,3,4,160
4.225472,0.005695,1,5,13,6,7,164
2.769571,-0.003432,1,5,13,7,8,168
2.323419,0.006269,1,5,13,8,9,172
2.522408,0.012536,1,5,13,9,10,176
2.578435,0.010999,1,5,13,10,11,180
4.033826,0.001368,1,5,13,11,12,184
4.031323,-3.140102,1,5,13,14,15,188
2.767491,3.138335,1,5,13,15,16,192
2.489177,-3.138933,1,6,14,1,2,196
2.546051,-3.140367,1,6,14,2,3,200
2.799537,-3.13539,1,6,14,3,4,204
4.085742,-3.140573,1,6,14,4,5,208
4.085742,0.001019,1,6,14,7,8,212
2.658922,-0.001241,1,6,14,8,9,216
2.49181,0.002334,1,6,14,9,10,220
2.267351,0.007892,1,6,14,10,11,224
2.690569,0.008373,1,6,14,11,12,228
4.001632,-0.004912,1,6,14,12,13,232
4.121258,-3.134557,1,6,14,15,16,236
2.80296,-3.135993,1,7,15,1,2,240
2.521851,-3.128999,1,7,15,2,3,244
2.493345,-3.139471,1,7,15,3,4,248
2.718119,3.139023,1,7,15,4,5,252
4.088278,-3.140696,1,7,15,5,6,0
3.923399,0.003157,1,7,15,8,9,4
2.828678,-0.004403,1,7,15,9,10,8
2.269783,0.007835,1,7,15,10,11,12
2.380302,0.005101,1,7,15,11,12,16
2.635357,0.009909,1,7,15,12,13,20
4.120561,0.007224,1,7,15,13,14,24
4.090624,-3.140862,1,8,16,1,2,28
2.830555,3.137019,1,8,16,2,3,32
2.49379,-3.139481,1,8,16,3,4,36
2.438043,-3.138151,1,8,16,4,5,40
