BIOZ1_MAG,BIOZ1_PHASE,EXC_FREQ_KHZ,EXC_PIN,GND_PIN,SNS_AP_PIN,SNS_AN_PIN,PACKET_NUMBER
3.07338,3.095477,10,12,4,6,7,227
2.593135,3.10463,10,12,4,7,8,231
2.480649,3.124259,10,12,4,8,9,235
2.830926,3.115827,10,12,4,9,10,239
4.2862,3.101265,10,12,4,10,11,243
4.248338,-0.036444,10,12,4,13,14,247
2.814333,-0.03907,10,12,4,14,15,251
2.53927,-0.045411,10,12,4,15,16,255
2.501692,-0.038864,10,13,5,1,2,3
2.851772,-0.044538,10,13,5,2,3,7
4.506443,-0.041231,10,13,5,3,4,11
4.468965,3.103932,10,13,5,6,7,15
2.905466,3.10461,10,13,5,7,8,19
2.425857,3.116028,10,13,5,8,9,23
2.4802,3.12449,10,13,5,9,10,27
2.905729,3.104494,10,13,5,10,11,31
4.21029,3.109128,10,13,5,11,12,35
4.1563,-0.03757,10,13,5,14,15,39
2.851434,-0.044481,10,13,5,15,16,43
2.500965,-0.039016,10,14,6,1,2,47
2.501481,-0.039042,10,14,6,2,3,51
2.889561,-0.050119,10,14,6,3,4,55
3.973025,-0.04037,10,14,6,4,5,59
4.247966,3.105117,10,14,6,7,8,63
2.738804,3.114302,10,14,6,8,9,67
2.46365,3.109144,10,14,6,9,10,71
2.593128,3.104777,10,14,6,10,11,75
2.830414,3.116059,10,14,6,11,12,79
4.157404,3.10397,10,14,6,12,13,83
4.194662,-0.041434,10,14,6,15,16,87
2.760814,-0.046645,10,15,7,1,2,91
2.447581,-0.047618,10,15,7,2,3,95
2.50213,-0.038801,10,15,7,3,4,99
2.53993,-0.045171,10,15,7,4,5,103
4.195645,-0.0414,10,15,7,5,6,107
4.028247,3.106807,10,15,7,8,9,111
2.831662,3.116067,10,15,7,9,10,115
2.593655,3.104898,10,15,7,10,11,119
2.518669,3.117692,10,15,7,11,12,123
2.906402,3.104675,10,15,7,12,13,127
4.265641,3.114109,10,15,7,13,14,131
4.248949,-0.036294,10,16,8,1,2,135
2.814149,-0.038748,10,16,8,2,3,139
2.539858,-0.04523,10,16,8,3,4,143
2.264758,-0.053089,10,16,8,4,5,147
2.85269,-0.044472,10,16,8,5,6,151
4.308656,-0.052599,10,16,8,6,7,155
4.432055,3.107654,10,16,8,9,10,159
2.943904,3.099125,10,16,8,10,11,163
2.556074,3.111171,10,16,8,11,12,167
2.631268,3.098602,10,16,8,12,13,171
2.906148,3.104644,10,16,8,13,14,175
4.211159,3.109103,10,16,8,14,15,179
4.234592,-0.045252,10,1,9,2,3,183
2.853367,-0.044585,10,1,9,3,4,187
2.303457,-0.059873,10,1,9,4,5,191
2.593736,-0.036782,10,1,9,5,6,195
2.890835,-0.050111,10,1,9,6,7,199
4.363232,-0.04751,10,1,9,7,8,203
4.196025,3.100077,10,1,9,10,11,207
2.869414,3.110225,10,1,9,11,12,211
2.631885,3.098637,10,1,9,12,13,215
2.556753,3.111117,10,1,9,13,14,219
2.831918,3.115952,10,1,9,14,15,223
4.266774,3.114056,10,1,9,15,16,227
4.287205,-0.040294,10,2,10,3,4,231
2.616289,-0.057441,10,2,10,4,5,235
2.577836,-0.0515,10,2,10,5,6,239
2.578062,-0.051469,10,2,10,6,7,243
2.928459,-0.055434,10,2,10,7,8,247
4.011981,-0.044237,10,2,10,8,9,251
4.341023,3.106371,10,2,10,11,12,255
2.90632,3.104615,10,2,10,12,13,3
2.555771,3.111227,10,2,10,13,14,7
2.555771,3.111227,10,2,10,14,15,11
2.83091,3.116121,10,2,10,15,16,15
4.303354,3.11031,10,3,11,1,2,19
4.012333,-0.044206,10,3,11,4,5,23
2.982364,-0.047871,10,3,11,5,6,27
2.707711,-0.054793,10,3,11,6,7,31
2.65391,-0.063187,10,3,11,7,8,35
2.761383,-0.04667,10,3,11,8,9,39
4.416767,-0.042493,10,3,11,9,10,43
4.158379,3.104004,10,3,11,12,13,47
2.869333,3.110166,10,3,11,13,14,51
2.51889,3.117723,10,3,11,14,15,55
2.51889,3.117723,10,3,11,15,16,59
2.794195,3.121744,10,4,12,1,2,63
4.174437,3.112717,10,4,12,2,3,67
4.638066,-0.043862,10,4,12,5,6,71
3.111548,-0.051198,10,4,12,6,7,75
2.669609,-0.049224,10,4,12,7,8,79
2.448674,-0.047903,10,4,12,8,9,83
2.852957,-0.044735,10,4,12,9,10,87
4.255734,-0.057986,10,4,12,10,11,91
4.249586,3.105154,10,4,12,13,14,95
2.778028,3.108328,10,4,12,14,15,99
2.464959,3.109037,10,4,12,15,16,103
2.426933,3.115889,10,5,13,1,2,107
2.86909,3.109988,10,5,13,2,3,111
4.449642,3.115861,10,5,13,3,4,115
4.454631,-0.046387,10,5,13,6,7,119
2.890581,-0.050142,10,5,13,7,8,123
2.448453,-0.047787,10,5,13,8,9,127
2.486169,-0.054044,10,5,13,9,10,131
2.928203,-0.055465,10,5,13,10,11,135
4.232726,-0.045261,10,5,13,11,12,139
4.120072,3.107939,10,5,13,14,15,143
2.830998,3.116033,10,5,13,15,16,147
2.426782,3.116064,10,6,14,1,2,151
2.464798,3.109359,10,6,14,2,3,155
2.868992,3.110222,10,6,14,3,4,159
3.974416,3.101347,10,6,14,4,5,163
4.287568,-0.040116,10,6,14,7,8,167
2.723229,-0.040782,10,6,14,8,9,171
2.486092,-0.053956,10,6,14,9,10,175
2.578288,-0.051438,10,6,14,10,11,179
2.853617,-0.044554,10,6,14,11,12,183
4.14293,-0.046695,10,6,14,12,13,187
4.120677,3.107942,10,6,14,15,16,191
2.777761,3.108738,10,7,15,1,2,195
2.427647,3.115895,10,7,15,2,3,199
2.465244,3.109127,10,7,15,3,4,203
2.6105,3.119144,10,7,15,4,5,207
4.136993,3.116929,10,7,15,5,6,211
4.067054,-0.039002,10,7,15,8,9,215
2.815653,-0.039002,10,7,15,9,10,219
2.578521,-0.051553,10,7,15,10,11,223
2.540834,-0.04534,10,7,15,11,12,227
2.853198,-0.044557,10,7,15,12,13,231
4.272484,-0.048984,10,7,15,13,14,235
4.265653,3.113963,10,8,16,1,2,239
2.777534,3.108413,10,8,16,2,3,243
2.465028,3.109096,10,8,16,3,4,247
2.260654,3.128807,10,8,16,4,5,251
2.831838,3.115892,10,8,16,5,6,255
4.25009,3.105098,10,8,16,6,7,3
4.416905,-0.04258,10,8,16,9,10,7
2.966945,-0.060673,10,8,16,10,11,11
2.540231,-0.045227,10,8,16,11,12,15
2.616053,-0.057325,10,8,16,12,13,19
2.890826,-0.049964,10,8,16,13,14,23
4.325749,-0.043814,10,8,16,14,15,27
4.210921,3.108984,10,9,1,2,3,31
2.831086,3.115946,10,9,1,3,4,35
2.280986,3.104949,10,9,1,4,5,39
2.518598,3.117633,10,9,1,5,6,43
2.906673,3.104412,10,9,1,6,7,47
4.356741,3.114958,10,9,1,7,8,51
4.217342,-0.054352,10,9,1,10,11,55
2.85211,-0.044594,10,9,1,11,12,59
2.615757,-0.057562,10,9,1,12,13,63
2.577377,-0.051415,10,9,1,13,14,67
2.852191,-0.044535,10,9,1,14,15,71
4.286575,-0.040297,10,9,1,15,16,75
4.248829,3.105239,10,10,2,3,4,79
2.64717,3.112881,10,10,2,4,5,83
2.555396,3.111224,10,10,2,5,6,87
2.555627,3.111108,10,10,2,6,7,91
2.906066,3.104584,10,10,2,7,8,95
4.006556,3.120224,10,10,2,8,9,99
4.323586,-0.043795,10,10,2,11,12,103
2.889895,-0.050029,10,10,2,12,13,107
2.577152,-0.051446,10,10,2,13,14,111
2.539564,-0.045321,10,10,2,14,15,115
2.852191,-0.044535,10,10,2,15,16,119
4.324247,-0.044086,10,11,3,1,2,123
4.027678,3.106511,10,11,3,4,5,127
2.960283,3.111661,10,11,3,5,6,131
2.609733,3.119138,10,11,3,6,7,135
2.593055,3.104718,10,11,3,7,8,139
2.701144,3.120629,10,11,3,8,9,143
4.340263,3.106309,10,11,3,9,10,147
4.194543,-0.041494,10,11,3,12,13,151
2.85211,-0.044594,10,11,3,13,14,155
2.501989,-0.03892,10,11,3,14,15,159
2.540016,-0.045405,10,11,3,15,16,163
2.760666,-0.04691,10,12,4,1,2,167
4.194804,-0.041669,10,12,4,2,3,171
4.615318,3.109591,10,12,4,5,6,175
2.960543,3.111692,10,12,4,6,7,179
2.631588,3.098399,10,12,4,7,8,183
2.426008,3.115852,10,12,4,8,9,187
2.830423,3.115912,10,12,4,9,10,191
4.248338,3.105148,10,12,4,10,11,195
4.231746,-0.045442,10,12,4,13,14,199
2.814166,-0.039042,10,12,4,14,15,203
2.538667,-0.045298,10,12,4,15,16,207
2.501395,-0.038807,10,13,5,1,2,211
2.889814,-0.050088,10,13,5,2,3,215
4.4687,-0.037632,10,13,5,3,4,219
4.339221,3.106568,10,13,5,6,7,223
2.905294,3.104638,10,13,5,7,8,227
2.388753,3.123011,10,13,5,8,9,231
2.463496,3.109319,10,13,5,9,10,235
2.867809,3.110273,10,13,5,10,11,239
4.210041,3.109156,10,13,5,11,12,243
4.1563,-0.03757,10,13,5,14,15,247
2.851941,-0.044566,10,13,5,15,16,251
2.447519,-0.047824,10,14,6,1,2,255
2.485594,-0.054225,10,14,6,2,3,3
2.852368,-0.04471,10,14,6,3,4,7
3.994912,-0.053916,10,14,6,4,5,11
4.248218,3.105089,10,14,6,7,8,15
2.701464,3.120572,10,14,6,8,9,19
2.426289,3.115943,10,14,6,9,10,23
2.539564,3.096272,10,14,6,10,11,27
2.814738,3.102673,10,14,6,11,12,31
4.118501,3.107902,10,14,6,12,13,35
4.1563,-0.03757,10,14,6,15,16,39
2.798396,-0.052263,10,15,7,1,2,43
2.447941,-0.047615,10,15,7,2,3,47
2.447795,-0.047586,10,15,7,3,4,51
2.615513,-0.0573,10,15,7,4,5,55
4.195147,-0.041344,10,15,7,5,6,59
4.044751,3.116124,10,15,7,8,9,63
2.794092,3.122125,10,15,7,9,10,67
2.577676,3.090268,10,15,7,10,11,71
2.480929,3.124496,10,15,7,11,12,75
2.814316,3.102817,10,15,7,12,13,79
4.265135,3.114166,10,15,7,13,14,83
4.286054,-0.040093,10,16,8,1,2,87
2.814404,-0.038864,10,16,8,2,3,91
2.46422,-0.032268,10,16,8,3,4,95
2.318744,-0.043512,10,16,8,4,5,99
2.814404,-0.038864,10,16,8,5,6,103
4.308279,-0.05263,10,16,8,6,7,107
4.340115,3.106543,10,16,8,9,10,111
2.906066,3.104584,10,16,8,10,11,115
2.501911,3.10276,10,16,8,11,12,119
2.539556,3.096419,10,16,8,12,13,123
2.830662,3.11609,10,16,8,13,14,127
4.30209,3.110304,10,16,8,14,15,131
4.195278,-0.041431,10,1,9,2,3,135
2.815231,-0.038858,10,1,9,3,4,139
2.356686,-0.050243,10,1,9,4,5,143
2.540382,-0.045255,10,1,9,5,6,147
2.982895,-0.047956,10,1,9,6,7,151
4.363614,-0.047479,10,1,9,7,8,155
4.19676,3.100139,10,1,9,10,11,159
2.869503,3.110138,10,1,9,11,12,163
2.540683,3.096281,10,1,9,12,13,167
2.51889,3.117723,10,1,9,13,14,171
2.99844,3.10636,10,1,9,14,15,175
4.228615,3.11798,10,1,9,15,16,179
4.23336,-0.045405,10,2,10,3,4,183
2.669601,-0.049077,10,2,10,4,5,187
2.593816,-0.036869,10,2,10,5,6,191
2.631655,-0.042987,10,2,10,6,7,195
2.890835,-0.050111,10,2,10,7,8,199
3.974641,-0.040127,10,2,10,8,9,203
4.287447,3.101418,10,2,10,11,12,207
2.853029,3.097064,10,2,10,12,13,211
2.481805,3.124473,10,2,10,13,14,215
2.594117,3.104814,10,2,10,14,15,219
2.83183,3.116039,10,2,10,15,16,223
4.342164,3.106464,10,3,11,1,2,227
4.050681,-0.048207,10,3,11,4,5,231
2.982895,-0.047956,10,3,11,5,6,235
2.631499,-0.042959,10,3,11,6,7,239
2.631885,-0.042956,10,3,11,7,8,243
2.723306,-0.040722,10,3,11,8,9,247
4.325113,-0.043817,10,3,11,9,10,251
4.120188,3.107999,10,3,11,12,13,255
2.831334,3.115977,10,3,11,13,14,3
2.593963,3.104842,10,3,11,14,15,7
2.51852,3.11772,10,3,11,15,16,11
2.776969,3.108292,10,4,12,1,2,15
4.174059,3.112833,10,4,12,2,3,19
4.599319,-0.040358,10,4,12,5,6,23
2.981682,-0.048199,10,4,12,6,7,27
2.66945,-0.049196,10,4,12,7,8,31
2.410689,-0.041301,10,4,12,8,9,35
2.852618,-0.044679,10,4,12,9,10,39
4.255361,-0.058017,10,4,12,10,11,43
4.21129,3.109015,10,4,12,13,14,47
2.868741,3.110191,10,4,12,14,15,51
2.464736,3.109152,10,4,12,15,16,55
2.518378,3.117601,10,5,13,1,2,59
2.831174,3.115858,10,5,13,2,3,63
4.448586,3.115974,10,5,13,3,4,67
4.362222,-0.047691,10,5,13,6,7,71
2.92855,-0.055521,10,5,13,7,8,75
2.410403,-0.041245,10,5,13,8,9,79
2.486099,-0.054103,10,5,13,9,10,83
2.89041,-0.050114,10,5,13,10,11,87
4.216592,-0.054267,10,5,13,11,12,91
4.248577,3.105267,10,5,13,14,15,95
2.739515,3.114542,10,5,13,15,16,99
2.464728,3.109299,10,6,14,1,2,103
2.464436,3.109356,10,6,14,2,3,107
2.831158,3.116152,10,6,14,3,4,111
3.990248,3.110868,10,6,14,4,5,115
4.271096,-0.048902,10,6,14,7,8,119
2.723229,-0.040782,10,6,14,8,9,123
2.50213,-0.038801,10,6,14,9,10,127
2.539707,-0.045202,10,6,14,10,11,131
2.85269,-0.044472,10,6,14,11,12,135
4.141583,-0.046614,10,6,14,12,13,139
4.119583,3.107996,10,6,14,15,16,143
2.739824,3.11478,10,7,15,1,2,147
2.426714,3.116005,10,7,15,2,3,151
2.389671,3.122901,10,7,15,3,4,155
2.631893,3.09849,10,7,15,4,5,159
4.211409,3.109075,10,7,15,5,6,163
4.066571,-0.038945,10,7,15,8,9,167
2.815072,-0.038977,10,7,15,9,10,171
2.562791,-0.066307,10,7,15,10,11,175
2.524505,-0.060281,10,7,15,11,12,179
2.837565,-0.057836,10,7,15,12,13,183
4.271603,-0.048958,10,7,15,13,14,187
4.303112,3.110191,10,8,16,1,2,191
2.776961,3.108438,10,8,16,2,3,195
2.389529,3.122929,10,8,16,3,4,199
2.334986,3.114219,10,8,16,4,5,203
2.793776,3.121888,10,8,16,5,6,207
4.303112,3.110191,10,8,16,6,7,211
4.324735,-0.043848,10,8,16,9,10,215
2.89032,-0.050026,10,8,16,10,11,219
2.501911,-0.038833,10,8,16,11,12,223
2.524276,-0.060166,10,8,16,12,13,227
2.890826,-0.049964,10,8,16,13,14,231
4.309168,-0.052655,10,8,16,14,15,235
4.210421,3.109041,10,9,1,2,3,239
2.776553,3.108436,10,9,1,3,4,243
2.334782,3.114188,10,9,1,4,5,247
2.55593,3.111052,10,9,1,5,6,251
2.997746,3.106179,10,9,1,6,7,255
4.394696,3.111202,10,9,1,7,8,3
4.179003,-0.050504,10,9,1,10,11,7
2.851852,-0.044478,10,9,1,11,12,11
2.524063,-0.060344,10,9,1,12,13,15
2.577385,-0.051562,10,9,1,13,14,19
2.944088,-0.042642,10,9,1,14,15,23
4.231602,-0.045208,10,9,1,15,16,27
4.20991,3.109244,10,10,2,3,4,31
2.684785,3.106861,10,10,2,4,5,35
2.555619,3.111255,10,10,2,5,6,39
2.722429,3.100805,10,10,2,6,7,43
2.867809,3.110273,10,10,2,7,8,47
3.95209,3.115035,10,10,2,8,9,51
4.323464,-0.043854,10,10,2,11,12,55
2.851772,-0.044538,10,10,2,12,13,59
2.576919,-0.051331,10,10,2,13,14,63
2.669126,-0.048993,10,10,2,14,15,67
2.814404,-0.038864,10,10,2,15,16,71
4.36184,-0.047722,10,11,3,1,2,75
4.027792,3.10657,10,11,3,4,5,79
2.92196,3.117367,10,11,3,5,6,83
2.73871,3.114537,10,11,3,6,7,87
2.555475,3.111136,10,11,3,7,8,91
2.701144,3.120629,10,11,3,8,9,95
4.301969,3.110245,10,11,3,9,10,99
4.140134,-0.046738,10,11,3,12,13,103
2.851772,-0.044538,10,11,3,13,14,107
2.668575,-0.048967,10,11,3,14,15,111
2.485439,-0.05405,10,11,3,15,16,115
2.85203,-0.044653,10,12,4,1,2,119
4.194058,-0.041584,10,12,4,2,3,123
4.651738,3.106112,10,12,4,5,6,127
3.127124,3.102582,10,12,4,6,7,131
2.593055,3.104718,10,12,4,7,8,135
2.38876,3.122864,10,12,4,8,9,139
2.830255,3.11594,10,12,4,9,10,143
4.247714,3.105146,10,12,4,10,11,147
4.232117,-0.045411,10,12,4,13,14,151
2.927781,-0.055615,10,12,4,14,15,155
2.463503,-0.032421,10,12,4,15,16,159
2.501247,-0.038779,10,13,5,1,2,163
2.851434,-0.044481,10,13,5,2,3,167
4.468435,-0.037604,10,13,5,3,4,171
4.377319,3.102726,10,13,5,6,7,175
2.905639,3.104581,10,13,5,7,8,179
2.351339,3.130301,10,13,5,8,9,183
2.517481,3.117771,10,13,5,9,10,187
2.813824,3.102754,10,13,5,10,11,191
4.21079,3.109072,10,13,5,11,12,195
4.231853,-0.045236,10,13,5,14,15,199
2.759925,-0.04671,10,13,5,15,16,203
2.485741,-0.054253,10,14,6,1,2,207
2.501777,-0.039098,10,14,6,2,3,211
2.852199,-0.044682,10,14,6,3,4,215
4.011053,-0.044418,10,14,6,4,5,219
4.248218,3.105089,10,14,6,7,8,223
2.684876,3.106626,10,14,6,8,9,227
2.5017,3.102582,10,14,6,9,10,231
2.501622,3.10267,10,14,6,10,11,235
2.793113,3.122,10,14,6,11,12,239
4.065618,3.102613,10,14,6,12,13,243
4.119711,-0.033685,10,14,6,15,16,247
2.890148,-0.049998,10,15,7,1,2,251
2.447941,-0.047615,10,15,7,2,3,255
2.410109,-0.041041,10,15,7,3,4,3
2.669276,-0.048874,10,15,7,4,5,7
4.232713,-0.045114,10,15,7,5,6,11
4.044511,3.116152,10,15,7,8,9,15
2.83099,3.11618,10,15,7,9,10,19
2.50206,3.102732,10,15,7,10,11,23
2.50213,3.102791,10,15,7,11,12,27
2.798974,3.089305,10,15,7,12,13,31
4.266014,3.114141,10,15,7,13,14,35
4.361555,-0.0474,10,16,8,1,2,39
2.81473,-0.038773,10,16,8,2,3,43
2.409966,-0.041013,10,16,8,3,4,47
2.35634,-0.050245,10,16,8,4,5,51
2.852271,-0.044475,10,16,8,5,6,55
4.361814,-0.047429,10,16,8,6,7,59
4.302467,3.110335,10,16,8,9,10,63
2.814149,3.102845,10,16,8,10,11,67
2.51815,3.117717,10,16,8,11,12,71
2.464074,3.109353,10,16,8,12,13,75
2.868822,3.110251,10,16,8,13,14,79
4.340631,3.106487,10,16,8,14,15,83
4.196511,-0.041426,10,1,9,2,3,87
2.815732,-0.038942,10,1,9,3,4,91
2.357313,-0.050296,10,1,9,4,5,95
2.540382,-0.045255,10,1,9,5,6,99
2.983072,-0.047984,10,1,9,6,7,103
4.417679,-0.042518,10,1,9,7,8,107
4.159366,3.103891,10,1,9,10,11,111
2.832334,3.115955,10,1,9,11,12,115
2.465314,3.109186,10,1,9,12,13,119
2.519709,3.117641,10,1,9,13,14,123
2.907782,3.104449,10,1,9,14,15,127
4.229488,3.117955,10,1,9,15,16,131
4.233862,-0.045462,10,2,10,3,4,135
2.70788,-0.054968,10,2,10,4,5,139
2.578368,-0.051525,10,2,10,5,6,143
2.707872,-0.054821,10,2,10,6,7,147
2.891006,-0.050139,10,2,10,7,8,151
3.937368,-0.036087,10,2,10,8,9,155
4.341784,3.106433,10,2,10,11,12,159
2.83183,3.116039,10,2,10,12,13,163
2.51889,3.117723,10,2,10,13,14,167
2.55645,3.111173,10,2,10,14,15,171
2.831918,3.115952,10,2,10,15,16,175
4.379248,3.102735,10,3,11,1,2,179
4.050441,-0.048178,10,3,11,4,5,183
2.94477,-0.042461,10,3,11,5,6,187
2.761547,-0.046698,10,3,11,6,7,191
2.578892,-0.051404,10,3,11,7,8,195
2.762203,-0.046811,10,3,11,8,9,199
4.32614,-0.04393,10,3,11,9,10,203
4.121527,3.107917,10,3,11,12,13,207
2.832246,3.116042,10,3,11,13,14,211
2.557585,3.111035,10,3,11,14,15,215
2.427571,3.115983,10,3,11,15,16,219
2.869601,3.109903,10,4,12,1,2,223
4.174803,3.112748,10,4,12,2,3,227
4.692635,-0.039208,10,4,12,5,6,231
3.165935,-0.044203,10,4,12,6,7,235
2.578142,-0.051556,10,4,12,7,8,239
2.448674,-0.047903,10,4,12,8,9,243
2.891015,-0.050286,10,4,12,9,10,247
4.195788,-0.041635,10,4,12,10,11,251
4.212158,3.10899,10,4,12,13,14,255
2.869171,3.110047,10,4,12,14,15,3
2.389536,3.122782,10,4,12,15,16,7
2.593743,3.104664,10,5,13,1,2,11
2.831422,3.115889,10,5,13,2,3,15
4.43312,3.107395,10,5,13,3,4,19
4.416918,-0.042727,10,5,13,6,7,23
2.853206,-0.044704,10,5,13,7,8,27
2.410682,-0.041154,10,5,13,8,9,31
2.577836,-0.0515,10,5,13,9,10,35
2.799551,-0.052313,10,5,13,10,11,39
4.271482,-0.049018,10,5,13,11,12,43
4.233599,3.096306,10,5,13,14,15,47
2.777612,3.108472,10,5,13,15,16,51
2.556674,3.111205,10,6,14,1,2,55
2.481658,3.124502,10,6,14,2,3,59
2.794257,3.122097,10,6,14,3,4,63
3.975708,3.101265,10,6,14,4,5,67
4.287822,-0.040144,10,6,14,7,8,71
2.686052,-0.034811,10,6,14,8,9,75
2.578054,-0.051322,10,6,14,9,10,79
2.449096,-0.047693,10,6,14,10,11,83
2.799551,-0.052313,10,6,14,11,12,87
4.126004,-0.055881,10,6,14,12,13,91
4.083156,3.112013,10,6,14,15,16,95
2.907256,3.104681,10,7,15,1,2,99
2.48196,3.124298,10,7,15,2,3,103
2.427791,3.115867,10,7,15,3,4,107
2.686143,3.106548,10,7,15,4,5,111
4.212408,3.108962,10,7,15,5,6,115
4.067054,-0.039002,10,7,15,8,9,119
2.891349,-0.050195,10,7,15,9,10,123
2.449172,-0.047781,10,7,15,10,11,127
2.503022,-0.038971,10,7,15,11,12,131
2.799971,-0.052457,10,7,15,12,13,135
4.32614,-0.04393,10,7,15,13,14,139
4.341281,3.106343,10,8,16,1,2,143
2.777455,3.108354,10,8,16,2,3,147
2.389745,3.122814,10,8,16,3,4,151
2.335402,3.114135,10,8,16,4,5,155
2.907183,3.104474,10,8,16,5,6,159
4.174543,3.112923,10,8,16,6,7,163
4.325896,-0.044049,10,8,16,9,10,167
2.799638,-0.052401,10,8,16,10,11,171
2.540159,-0.045286,10,8,16,11,12,175
2.486387,-0.054013,10,8,16,12,13,179
2.944337,-0.042464,10,8,16,13,14,183
4.233467,-0.045199,10,8,16,14,15,187
4.211171,3.108956,10,9,1,2,3,191
2.776718,3.108407,10,9,1,3,4,195
2.372674,3.10713,10,9,1,4,5,199
2.556154,3.111083,10,9,1,5,6,203
2.906156,3.104497,10,9,1,6,7,207
4.339613,3.106453,10,9,1,7,8,211
4.140496,-0.046707,10,9,1,10,11,215
2.852279,-0.044622,10,9,1,11,12,219
2.485439,-0.05405,10,9,1,12,13,223
2.61521,-0.05739,10,9,1,13,14,227
2.85211,-0.044594,10,9,1,14,15,231
4.21104,-0.032549,10,9,1,15,16,235
4.210909,3.109131,10,10,2,3,4,239
2.684868,3.106773,10,10,2,4,5,243
2.593428,3.104867,10,10,2,5,6,247
2.555547,3.111196,10,10,2,6,7,251
2.86832,3.110188,10,10,2,7,8,255
3.952559,3.114978,10,10,2,8,9,3
4.361568,-0.047547,10,10,2,11,12,7
2.798484,-0.05235,10,10,2,12,13,11
2.630726,-0.042965,10,10,2,13,14,15
2.539033,-0.045148,10,10,2,14,15,19
2.814404,-0.038864,10,10,2,15,16,23
4.399871,-0.051265,10,11,3,1,2,27
4.065744,3.102526,10,11,3,4,5,31
3.035918,3.100809,10,11,3,5,6,35
2.59397,3.104695,10,11,3,6,7,39
2.59397,3.104695,10,11,3,7,8,43
2.756315,3.128107,10,11,3,8,9,47
4.303367,3.110163,10,11,3,9,10,51
4.103869,-0.042831,10,11,3,12,13,55
2.89041,-0.050114,10,11,3,13,14,59
2.539636,-0.045261,10,11,3,14,15,63
2.485734,-0.054106,10,11,3,15,16,67
2.943481,-0.042617,10,12,4,1,2,71
4.193809,-0.041556,10,12,4,2,3,75
4.652014,3.106084,10,12,4,5,6,79
3.035112,3.100862,10,12,4,6,7,83
2.647096,3.112821,10,12,4,7,8,87
2.463288,3.109141,10,12,4,8,9,91
2.867477,3.110182,10,12,4,9,10,95
4.156065,3.103904,10,12,4,10,11,99
4.285691,-0.040271,10,12,4,13,14,103
2.889994,-0.050263,10,12,4,14,15,107
2.447733,-0.047793,10,12,4,15,16,111
2.668259,-0.048911,10,13,5,1,2,115
2.851852,-0.044478,10,13,5,2,3,119
4.452643,-0.046102,10,13,5,3,4,123
4.377182,3.102814,10,13,5,6,7,127
2.905548,3.104669,10,13,5,7,8,131
2.425926,3.116087,10,13,5,8,9,135
2.51756,3.117683,10,13,5,9,10,139
2.684315,3.106799,10,13,5,10,11,143
4.247953,3.105264,10,13,5,11,12,147
4.269467,-0.048939,10,13,5,14,15,151
2.760167,-0.046679,10,13,5,15,16,155
2.630734,-0.043112,10,14,6,1,2,159
2.501403,-0.038954,10,14,6,2,3,163
2.814333,-0.03907,10,14,6,3,4,167
3.995261,-0.053885,10,14,6,4,5,171
4.248722,3.105033,10,14,6,7,8,175
2.70138,3.12066,10,14,6,8,9,179
2.518079,3.117658,10,14,6,9,10,183
2.371904,3.107212,10,14,6,10,11,187
2.776796,3.108467,10,14,6,11,12,191
4.065135,3.10267,10,14,6,12,13,195
4.119106,-0.033687,10,14,6,15,16,199
2.928368,-0.055346,10,15,7,1,2,203
2.50206,-0.038861,10,15,7,2,3,207
2.448736,-0.047696,10,15,7,3,4,211
2.6543,-0.063184,10,15,7,4,5,215
4.234089,-0.045196,10,15,7,5,6,219
4.007733,3.12023,10,15,7,8,9,223
2.868992,3.110222,10,15,7,9,10,227
2.389455,3.123017,10,15,7,10,11,231
2.464728,3.109299,10,15,7,11,12,235
2.777283,3.108529,10,15,7,12,13,239
4.266147,3.114053,10,15,7,13,14,243
4.362332,-0.047485,10,16,8,1,2,247
2.776953,-0.033007,10,16,8,2,3,251
2.4483,-0.047612,10,16,8,3,4,255
2.356826,-0.050271,10,16,8,4,5,3
2.890148,-0.049998,10,16,8,5,6,7
4.19478,-0.041375,10,16,8,6,7,11
4.302722,3.110307,10,16,8,9,10,15
2.739515,3.114542,10,16,8,10,11,19
2.501692,3.102729,10,16,8,11,12,23
2.447795,3.094006,10,16,8,12,13,27
2.922463,3.117576,10,16,8,13,14,31
4.173552,3.113036,10,16,8,14,15,35
4.196772,-0.041601,10,1,9,2,3,39
2.778099,-0.033058,10,1,9,3,4,43
2.357246,-0.050355,10,1,9,4,5,47
2.616134,-0.057412,10,1,9,5,6,51
2.891006,-0.050139,10,1,9,6,7,55
4.363232,-0.04751,10,1,9,7,8,59
4.104472,3.098764,10,1,9,10,11,63
2.77802,3.108475,10,1,9,11,12,67
2.448881,3.093868,10,1,9,12,13,71
2.610802,3.119234,10,1,9,13,14,75
2.83175,3.11598,10,1,9,14,15,79
4.212277,3.109049,10,1,9,15,16,83
4.232977,-0.045289,10,2,10,3,4,87
2.723722,-0.041013,10,2,10,4,5,91
2.631425,-0.043018,10,2,10,5,6,95
2.577676,-0.051325,10,2,10,6,7,99
2.944512,-0.042493,10,2,10,7,8,103
3.973945,-0.040189,10,2,10,8,9,107
4.378345,3.10276,10,2,10,11,12,111
2.777361,3.108588,10,2,10,12,13,115
2.593809,3.10487,10,2,10,13,14,119
2.518598,3.117633,10,2,10,14,15,123
2.793524,3.122003,10,2,10,15,16,127
4.395589,3.111324,10,3,11,1,2,131
4.050681,-0.048207,10,3,11,4,5,135
3.036716,-0.04069,10,3,11,5,6,139
2.594806,-0.036832,10,3,11,6,7,143
2.616829,-0.057466,10,3,11,7,8,147
2.762117,-0.046724,10,3,11,8,9,151
4.326776,-0.043927,10,3,11,9,10,155
4.067169,3.10265,10,3,11,12,13,159
2.869163,3.110194,10,3,11,13,14,163
2.464875,3.109271,10,3,11,14,15,167
2.481371,3.124411,10,3,11,15,16,171
2.944013,3.098744,10,4,12,1,2,175
4.173824,3.112714,10,4,12,2,3,179
4.691668,-0.039183,10,4,12,5,6,183
2.982381,-0.048165,10,4,12,6,7,187
2.631276,-0.043137,10,4,12,7,8,191
2.486324,-0.054219,10,4,12,8,9,195
2.8905,-0.050201,10,4,12,9,10,199
4.179381,-0.05062,10,4,12,10,11,203
4.249346,3.105036,10,4,12,13,14,207
2.777534,3.108413,10,4,12,14,15,211
2.427221,3.115833,10,4,12,15,16,215
2.631975,3.098402,10,5,13,1,2,219
2.831342,3.11583,10,5,13,2,3,223
4.449378,3.115889,10,5,13,3,4,227
4.325004,-0.044023,10,5,13,6,7,231
2.92855,-0.055521,10,5,13,7,8,235
2.448093,-0.04779,10,5,13,8,9,239
2.539786,-0.045289,10,5,13,9,10,243
2.707077,-0.054827,10,5,13,10,11,247
4.232713,-0.045114,10,5,13,11,12,251
4.211159,3.109103,10,5,13,14,15,255
2.739275,3.114511,10,5,13,15,16,3
2.631729,3.098665,10,6,14,1,2,7
2.481224,3.124439,10,6,14,2,3,11
2.794179,3.122037,10,6,14,3,4,15
3.991071,3.110843,10,6,14,4,5,19
4.249573,-0.036292,10,6,14,7,8,23
2.723476,-0.040897,10,6,14,8,9,27
2.502576,-0.038886,10,6,14,9,10,31
2.357173,-0.050268,10,6,14,10,11,35
2.76122,-0.046642,10,6,14,11,12,39
4.179983,-0.05047,10,6,14,12,13,43
4.083041,3.111953,10,6,14,15,16,47
2.944678,3.099219,10,7,15,1,2,51
2.464736,3.109152,10,7,15,2,3,55
2.427358,3.115952,10,7,15,3,4,59
2.648345,3.112743,10,7,15,4,5,63
4.212896,3.109052,10,7,15,5,6,67
4.029329,-0.034986,10,7,15,8,9,71
2.853706,-0.044642,10,7,15,9,10,75
2.357319,-0.050443,10,7,15,10,11,79
2.486977,-0.054126,10,7,15,11,12,83
2.746576,-0.060607,10,7,15,12,13,87
4.28884,-0.040257,10,7,15,13,14,91
4.341539,3.106315,10,8,16,1,2,95
2.777699,3.108385,10,8,16,2,3,99
2.427358,3.115952,10,8,16,3,4,103
2.335263,3.114163,10,8,16,4,5,107
2.869001,3.110075,10,8,16,5,6,111
4.212527,3.109021,10,8,16,6,7,115
4.287701,-0.040203,10,8,16,9,10,119
2.761633,-0.046786,10,8,16,10,11,123
2.487047,-0.054066,10,8,16,11,12,127
2.43326,-0.063359,10,8,16,12,13,131
2.928972,-0.055372,10,8,16,13,14,135
4.196262,-0.041397,10,8,16,14,15,139
4.21154,3.108987,10,9,1,2,3,143
2.756401,3.12802,10,9,1,3,4,147
2.335197,3.114104,10,9,1,4,5,151
2.593743,3.104664,10,9,1,5,6,155
2.869082,3.110135,10,9,1,6,7,159
4.395217,3.111146,10,9,1,7,8,163
4.141724,-0.046848,10,9,1,10,11,167
2.799227,-0.052404,10,9,1,11,12,171
2.448238,-0.047818,10,9,1,12,13,175
2.577836,-0.0515,10,9,1,13,14,179
2.852948,-0.044588,10,9,1,14,15,183
4.271361,-0.049077,10,9,1,15,16,187
4.211277,3.109162,10,10,2,3,4,191
2.722591,3.100777,10,10,2,4,5,195
2.630726,3.098628,10,10,2,5,6,199
2.555547,3.111196,10,10,2,6,7,203
2.868571,3.110219,10,10,2,7,8,207
3.952671,3.115038,10,10,2,8,9,211
4.36195,-0.047516,10,10,2,11,12,215
2.760167,-0.046679,10,10,2,12,13,219
2.577305,-0.051475,10,10,2,13,14,223
2.539334,-0.045205,10,10,2,14,15,227
2.814237,-0.038835,10,10,2,15,16,231
4.400132,-0.051293,10,11,3,1,2,235
4.027314,3.106626,10,11,3,4,5,239
2.998008,3.10621,10,11,3,5,6,243
2.593435,3.10472,10,11,3,6,7,247
2.593435,3.10472,10,11,3,7,8,251
2.739438,3.114483,10,11,3,8,9,255
4.227373,3.117975,10,11,3,9,10,3
4.179499,-0.050561,10,11,3,12,13,7
2.906411,-0.037065,10,11,3,13,14,11
2.539564,-0.045321,10,11,3,14,15,15
2.539937,-0.045318,10,11,3,15,16,19
3.01978,-0.053323,10,12,4,1,2,23
4.194674,-0.041581,10,12,4,2,3,27
4.690687,3.102582,10,12,4,5,6,31
2.997652,3.106267,10,12,4,6,7,35
2.647335,3.112706,10,12,4,7,8,39
2.480649,3.124259,10,12,4,8,9,43
2.868247,3.109982,10,12,4,9,10,47
4.11899,3.107846,10,12,4,10,11,51
4.27112,-0.049196,10,12,4,13,14,55
2.814491,-0.038951,10,12,4,14,15,59
2.501629,-0.03907,10,12,4,15,16,63
2.668575,-0.048967,10,13,5,1,2,67
2.852021,-0.044506,10,13,5,2,3,71
4.50671,-0.041259,10,13,5,3,4,75
4.264388,3.114104,10,13,5,6,7,79
2.905639,3.104581,10,13,5,7,8,83
2.463642,3.109291,10,13,5,8,9,87
2.463642,3.109291,10,13,5,9,10,91
2.646782,3.112878,10,13,5,10,11,95
4.210172,3.109069,10,13,5,11,12,99
4.102664,-0.042837,10,13,5,14,15,103
2.759684,-0.046741,10,13,5,15,16,107
2.668824,-0.04923,10,14,6,1,2,111
2.539421,-0.045439,10,14,6,2,3,115
2.813919,-0.039073,10,14,6,3,4,119
3.995386,-0.053973,10,14,6,4,5,123
4.248722,3.105033,10,14,6,7,8,127
2.739283,3.114364,10,14,6,8,9,131
2.480866,3.12429,10,14,6,9,10,135
2.334716,3.114129,10,14,6,10,11,139
2.739523,3.114396,10,14,6,11,12,143
4.15765,3.103941,10,14,6,12,13,147
4.103151,-0.042893,10,14,6,15,16,151
2.982187,-0.047843,10,15,7,1,2,155
2.502208,-0.038889,10,15,7,2,3,159
2.502279,-0.03883,10,15,7,3,4,163
2.669593,-0.04893,10,15,7,4,5,167
4.233467,-0.045199,10,15,7,5,6,171
3.990598,3.110899,10,15,7,8,9,175
2.868652,3.110279,10,15,7,9,10,179
2.335118,3.114338,10,15,7,10,11,183
2.46429,3.109384,10,15,7,11,12,187
2.685498,3.106807,10,15,7,12,13,191
4.265641,3.114109,10,15,7,13,14,195
4.377702,-0.038835,10,16,8,1,2,199
2.776545,-0.03301,10,16,8,2,3,203
2.463928,-0.032212,10,16,8,3,4,207
2.356274,-0.050305,10,16,8,4,5,211
2.890148,-0.049998,10,16,8,5,6,215
4.232845,-0.045202,10,16,8,6,7,219
4.211159,3.109103,10,16,8,9,10,223
2.64732,3.112999,10,16,8,10,11,227
2.464151,3.109265,10,16,8,11,12,231
2.334775,3.114335,10,16,8,12,13,235
2.868401,3.110248,10,16,8,13,14,239
4.227492,3.118034,10,16,8,14,15,243
4.197009,-0.041482,10,1,9,2,3,247
2.761383,-0.04667,10,1,9,3,4,251
2.356966,-0.050299,10,1,9,4,5,255
2.61606,-0.057472,10,1,9,5,6,3
2.945036,-0.042577,10,1,9,6,7,7
4.417816,-0.042605,10,1,9,7,8,11
4.066686,3.102707,10,1,9,10,11,15
2.77802,3.108475,10,1,9,11,12,19
2.298301,3.121427,10,1,9,12,13,23
2.594652,3.104789,10,1,9,13,14,27
2.83183,3.116039,10,1,9,14,15,31
4.229237,3.117983,10,1,9,15,16,35
4.196025,-0.041516,10,2,10,3,4,39
2.761391,-0.046817,10,2,10,4,5,43
2.669601,-0.049077,10,2,10,5,6,47
2.578135,-0.051409,10,2,10,6,7,51
2.928972,-0.055372,10,2,10,7,8,55
3.975112,-0.040184,10,2,10,8,9,59
4.341526,3.106462,10,2,10,11,12,63
2.723229,3.100811,10,2,10,12,13,67
2.59389,3.104783,10,2,10,13,14,71
2.464436,3.109356,10,2,10,14,15,75
2.794345,3.122009,10,2,10,15,16,79
4.416767,3.0991,10,3,11,1,2,83
4.051162,-0.048263,10,3,11,4,5,87
3.020923,-0.05314,10,3,11,5,6,91
2.632354,-0.043041,10,3,11,6,7,95
2.632428,-0.042981,10,3,11,7,8,99
2.724037,-0.040923,10,3,11,8,9,103
4.272991,-0.04904,10,3,11,9,10,107
4.159236,3.103978,10,3,11,12,13,111
2.869925,3.110141,10,3,11,13,14,115
2.427214,3.11598,10,3,11,14,15,119
2.464805,3.109212,10,3,11,15,16,123
2.99855,3.105979,10,4,12,1,2,127
4.174803,3.112748,10,4,12,2,3,131
4.691654,-0.039036,10,4,12,5,6,135
2.982288,-0.048077,10,4,12,6,7,139
2.65439,-0.063418,10,4,12,7,8,143
2.411043,-0.041298,10,4,12,8,9,147
2.853545,-0.04476,10,4,12,9,10,151
4.088397,-0.052343,10,4,12,10,11,155
4.250223,3.10501,10,4,12,13,14,159
2.777126,3.10841,10,4,12,14,15,163
2.464805,3.109212,10,4,12,15,16,167
2.685749,3.106545,10,5,13,1,2,171
2.831422,3.115889,10,5,13,2,3,175
4.487598,3.112175,10,5,13,3,4,179
4.325639,-0.04402,10,5,13,6,7,183
2.890843,-0.050258,10,5,13,7,8,187
2.410825,-0.041183,10,5,13,8,9,191
2.539937,-0.045318,10,5,13,9,10,195
2.669126,-0.048993,10,5,13,10,11,199
4.232726,-0.045261,10,5,13,11,12,203
4.082568,3.111863,10,5,13,14,15,207
2.7396,3.114455,10,5,13,15,16,211
2.63196,3.098696,10,6,14,1,2,215
2.481294,3.124499,10,6,14,2,3,219
2.794921,3.121984,10,6,14,3,4,223
3.991308,3.110815,10,6,14,4,5,227
4.287568,-0.040116,10,6,14,7,8,231
2.723391,-0.04081,10,6,14,8,9,235
2.54008,-0.045199,10,6,14,9,10,239
2.357246,-0.050355,10,6,14,10,11,243
2.799306,-0.052344,10,6,14,11,12,247
4.218069,-0.054143,10,6,14,12,13,251
4.121411,3.107858,10,6,14,15,16,255
2.999406,3.106425,10,7,15,1,2,3
2.465314,3.109186,10,7,15,2,3,7
2.427647,3.115895,10,7,15,3,4,11
2.648809,3.112805,10,7,15,4,5,15
4.213647,3.108967,10,7,15,5,6,19
4.030046,-0.03507,10,7,15,8,9,23
2.854134,-0.044786,10,7,15,9,10,27
2.411465,-0.041236,10,7,15,10,11,31
2.449387,-0.04775,10,7,15,11,12,35
2.632585,-0.04301,10,7,15,12,13,39
4.272991,-0.04904,10,7,15,13,14,43
4.379521,3.10256,10,8,16,1,2,47
2.777864,3.108357,10,8,16,2,3,51
2.427146,3.11592,10,8,16,3,4,55
2.373164,3.107105,10,8,16,4,5,59
2.869252,3.110107,10,8,16,5,6,63
4.174791,3.112895,10,8,16,6,7,67
4.250582,-0.036404,10,8,16,9,10,71
2.6859,-0.034929,10,8,16,10,11,75
2.48683,-0.054097,10,8,16,11,12,79
2.319223,-0.043537,10,8,16,12,13,83
2.890835,-0.050111,10,8,16,13,14,87
4.234221,-0.045284,10,8,16,14,15,91
4.173942,3.112774,10,9,1,2,3,95
2.739523,3.114396,10,9,1,3,4,99
2.410266,3.100229,10,9,1,4,5,103
2.593435,3.10472,10,9,1,5,6,107
2.869001,3.110075,10,9,1,6,7,111
4.341281,3.106343,10,9,1,7,8,115
4.065376,-0.038951,10,9,1,10,11,119
2.815239,-0.039005,10,9,1,11,12,123
2.318954,-0.043628,10,9,1,12,13,127
2.578069,-0.051616,10,9,1,13,14,131
2.852449,-0.04465,10,9,1,14,15,135
4.233228,-0.045318,10,9,1,15,16,139
4.210159,3.109216,10,10,2,3,4,143
2.685028,3.106745,10,10,2,4,5,147
2.593662,3.104752,10,10,2,5,6,151
2.594044,3.104754,10,10,2,6,7,155
2.906755,3.104471,10,10,2,7,8,159
3.991196,3.110755,10,10,2,8,9,163
4.324991,-0.043876,10,10,2,11,12,167
2.631893,-0.043103,10,10,2,12,13,171
2.578062,-0.051469,10,10,2,13,14,175
2.539865,-0.045377,10,10,2,14,15,179
2.814571,-0.038892,10,10,2,15,16,183
4.438362,-0.054862,10,11,3,1,2,187
4.066227,3.102469,10,11,3,4,5,191
2.998457,3.106066,10,11,3,5,6,195
2.610655,3.119115,10,11,3,6,7,199
2.556457,3.111027,10,11,3,7,8,203
2.701861,3.120575,10,11,3,8,9,207
4.265521,3.11405,10,11,3,9,10,211
4.179747,-0.050589,10,11,3,12,13,215
2.890067,-0.050057,10,11,3,13,14,219
2.485734,-0.054106,10,11,3,14,15,223
2.501841,-0.038892,10,11,3,15,16,227
3.019601,-0.053295,10,12,4,1,2,231
4.178153,-0.050626,10,12,4,2,3,235
4.652422,3.106115,10,12,4,5,6,239
3.051546,3.113151,10,12,4,6,7,243
2.610043,3.119081,10,12,4,7,8,247
2.426433,3.115915,10,12,4,8,9,251
2.831006,3.115886,10,12,4,9,10,255
4.081738,3.111741,10,12,4,10,11,3
4.249478,-0.036645,10,12,4,13,14,7
2.777542,-0.033326,10,12,4,14,15,11
2.486254,-0.054278,10,12,4,15,16,15
2.745443,-0.060556,10,13,5,1,2,19
2.868911,-0.03143,10,13,5,2,3,23
4.507372,-0.041256,10,13,5,3,4,27
4.286562,3.101443,10,13,5,6,7,31
2.906583,3.1045,10,13,5,7,8,35
2.389246,3.122986,10,13,5,8,9,39
2.518527,3.117573,10,13,5,9,10,43
2.701777,3.120663,10,13,5,10,11,47
4.21104,3.109043,10,13,5,11,12,51
4.15704,-0.037654,10,13,5,14,15,55
2.777047,-0.033242,10,13,5,15,16,59
2.69194,-0.069118,10,14,6,1,2,63
2.501926,-0.039126,10,14,6,2,3,67
2.814667,-0.039126,10,14,6,3,4,71
3.99656,-0.053967,10,14,6,4,5,75
4.249346,3.105036,10,14,6,7,8,79
2.702266,3.120431,10,14,6,8,9,83
2.518456,3.117514,10,14,6,9,10,87
2.334848,3.114248,10,14,6,10,11,91
2.777204,3.10847,10,14,6,11,12,95
4.194792,3.100071,10,14,6,12,13,99
4.156546,-0.037598,10,14,6,15,16,103
2.981572,-0.047817,10,15,7,1,2,107
2.501841,-0.038892,10,15,7,2,3,111
2.464436,-0.032237,10,15,7,3,4,115
2.669276,-0.048874,10,15,7,4,5,119
4.232965,-0.045143,10,15,7,5,6,123
4.044751,3.116124,10,15,7,8,9,127
2.81473,3.102819,10,15,7,9,10,131
2.372527,3.107306,10,15,7,10,11,135
2.464366,3.109296,10,15,7,11,12,139
2.610573,3.119203,10,15,7,12,13,143
4.30361,3.110282,10,15,7,13,14,147
4.453687,-0.046068,10,16,8,1,2,151
2.814483,-0.038804,10,16,8,2,3,155
2.46422,-0.032268,10,16,8,3,4,159
2.394384,-0.056761,10,16,8,4,5,163
2.890148,-0.049998,10,16,8,5,6,167
4.231972,-0.045177,10,16,8,6,7,171
4.248445,3.105355,10,16,8,9,10,175
2.685028,3.106745,10,16,8,10,11,179
2.480712,3.124465,10,16,8,11,12,183
2.259913,3.129035,10,16,8,12,13,187
2.83075,3.116002,10,16,8,13,14,191
4.210909,3.109131,10,16,8,14,15,195
4.196641,-0.041513,10,1,9,2,3,199
2.777934,-0.03303,10,1,9,3,4,203
2.433473,-0.063328,10,1,9,4,5,207
2.616289,-0.057441,10,1,9,5,6,211
2.891341,-0.050048,10,1,9,6,7,215
4.36375,-0.047567,10,1,9,7,8,219
4.029203,3.106694,10,1,9,10,11,223
2.777612,3.108472,10,1,9,11,12,227
2.260718,3.128866,10,1,9,12,13,231
2.519488,3.11761,10,1,9,13,14,235
2.869754,3.110169,10,1,9,14,15,239
4.229619,3.117868,10,1,9,15,16,243
4.25122,-0.036548,10,2,10,3,4,247
2.708439,-0.054993,10,2,10,4,5,251
2.632042,-0.042984,10,2,10,5,6,255
2.540533,-0.045284,10,2,10,6,7,3
2.891259,-0.050108,10,2,10,7,8,7
4.013047,-0.044291,10,2,10,8,9,11
4.304121,3.110225,10,2,10,11,12,15
2.573753,3.125766,10,2,10,12,13,19
2.519039,3.117695,10,2,10,13,14,23
2.556753,3.111117,10,2,10,14,15,27
2.794755,3.122012,10,2,10,15,16,31
4.472123,3.103888,10,3,11,1,2,35
4.051403,-0.048291,10,3,11,4,5,39
3.021196,-0.053255,10,3,11,5,6,43
2.632428,-0.042981,10,3,11,6,7,47
2.616674,-0.057438,10,3,11,7,8,51
2.724276,-0.040892,10,3,11,8,9,55
4.288452,-0.040141,10,3,11,9,10,59
4.181093,3.091069,10,3,11,12,13,63
2.832334,3.115955,10,3,11,13,14,67
2.519559,3.11767,10,3,11,14,15,71
2.427427,3.116011,10,3,11,15,16,75
2.998728,3.105951,10,4,12,1,2,79
4.174685,3.112689,10,4,12,2,3,83
4.639023,-0.043887,10,4,12,5,6,87
2.982819,-0.048162,10,4,12,6,7,91
2.632213,-0.043306,10,4,12,7,8,95
2.373378,-0.034603,10,4,12,8,9,99
2.799567,-0.052607,10,4,12,9,10,103
4.08887,-0.052253,10,4,12,10,11,107
4.21204,3.108931,10,4,12,13,14,111
2.777699,3.108385,10,4,12,14,15,115
2.427578,3.115836,10,4,12,15,16,119
2.723322,3.100577,10,5,13,1,2,123
2.831758,3.115833,10,5,13,2,3,127
4.487738,3.112087,10,5,13,3,4,131
4.325896,-0.044049,10,5,13,6,7,135
2.945211,-0.042605,10,5,13,7,8,139
2.373439,-0.034397,10,5,13,8,9,143
2.540834,-0.04534,10,5,13,9,10,147
2.708515,-0.054934,10,5,13,10,11,151
4.180975,-0.050583,10,5,13,11,12,155
4.197507,3.100054,10,5,13,14,15,159
2.740568,3.114432,10,5,13,15,16,163
2.724676,3.100704,10,6,14,1,2,167
2.482318,3.124448,10,6,14,2,3,171
2.795087,3.121956,10,6,14,3,4,175
3.992369,3.110761,10,6,14,4,5,179
4.234843,-0.045281,10,6,14,7,8,183
2.68669,-0.034924,10,6,14,8,9,187
2.540906,-0.045281,10,6,14,9,10,191
2.411247,-0.04112,10,6,14,10,11,195
2.80005,-0.052398,10,6,14,11,12,199
4.20339,-0.063269,10,6,14,12,13,203
4.121038,3.107973,10,6,14,15,16,207
2.98324,3.093728,10,7,15,1,2,211
2.464736,3.109152,10,7,15,2,3,215
2.427503,3.115923,10,7,15,3,4,219
2.686538,3.10655,10,7,15,4,5,223
4.175522,3.112958,10,7,15,5,6,227
4.067054,-0.039002,10,7,15,8,9,231
2.81582,-0.03903,10,7,15,9,10,235
2.4109,-0.04127,10,7,15,10,11,239
2.449103,-0.04784,10,7,15,11,12,243
2.670619,-0.04904,10,7,15,12,13,247
4.311202,-0.052734,10,7,15,13,14,251
4.417567,3.098868,10,8,16,1,2,255
2.777699,3.108385,10,8,16,2,3,3
2.427434,3.115864,10,8,16,3,4,7
2.411186,3.100266,10,8,16,4,5,11
2.869763,3.110022,10,8,16,5,6,15
4.175038,3.112867,10,8,16,6,7,19
4.288343,-0.040347,10,8,16,9,10,23
2.723799,-0.040954,10,8,16,10,11,27
2.48683,-0.054097,10,8,16,11,12,31
2.319426,-0.043506,10,8,16,12,13,35
2.816146,-0.03894,10,8,16,13,14,39
4.234724,-0.04534,10,8,16,14,15,43
4.212171,3.108843,10,9,1,2,3,47
2.740011,3.114311,10,9,1,3,4,51
2.410689,3.100291,10,9,1,4,5,55
2.594278,3.104639,10,9,1,5,6,59
2.869001,3.110075,10,9,1,6,7,63
4.357899,3.114904,10,9,1,7,8,67
4.050567,-0.048266,10,9,1,10,11,71
2.815072,-0.038977,10,9,1,11,12,75
2.318889,-0.043687,10,9,1,12,13,79
2.540238,-0.045374,10,9,1,13,14,83
2.92812,-0.055524,10,9,1,14,15,87
4.232726,-0.045261,10,9,1,15,16,91
4.211028,3.10919,10,10,2,3,4,95
2.685187,3.106717,10,10,2,4,5,99
2.609725,3.119285,10,10,2,5,6,103
2.555619,3.111255,10,10,2,6,7,107
2.868401,3.110248,10,10,2,7,8,111
3.989662,3.110865,10,10,2,8,9,115
4.323464,-0.043854,10,10,2,11,12,119
2.706755,-0.05477,10,10,2,12,13,123
2.539485,-0.045233,10,10,2,13,14,127
2.615521,-0.057446,10,10,2,14,15,131
2.85261,-0.044532,10,10,2,15,16,135
4.475336,-0.058376,10,11,3,1,2,139
4.027314,3.106626,10,11,3,4,5,143
2.998186,3.106182,10,11,3,5,6,147
2.593662,3.104752,10,11,3,6,7,151
2.593743,3.104664,10,11,3,7,8,155
2.70154,3.120632,10,11,3,8,9,159
4.211159,3.109103,10,11,3,9,10,163
4.178767,-0.050623,10,11,3,12,13,167
2.814984,-0.038889,10,11,3,13,14,171
2.540009,-0.045258,10,11,3,14,15,175
2.448376,-0.047699,10,11,3,15,16,179
3.01978,-0.053323,10,12,4,1,2,183
4.157169,-0.037742,10,12,4,2,3,187
4.653802,3.105974,10,12,4,5,6,191
2.960718,3.111664,10,12,4,6,7,195
2.610426,3.119084,10,12,4,7,8,199
2.352117,3.129926,10,12,4,8,9,203
2.794274,3.121803,10,12,4,9,10,207
4.028623,3.106545,10,12,4,10,11,211
4.287084,-0.040353,10,12,4,13,14,215
2.852537,-0.044738,10,12,4,14,15,219
2.410341,-0.041451,10,12,4,15,16,223
2.74528,-0.060528,10,13,5,1,2,227
2.85236,-0.044563,10,13,5,2,3,231
4.507372,-0.041256,10,13,5,3,4,235
4.302601,3.110248,10,13,5,6,7,239
2.905984,3.104525,10,13,5,7,8,243
2.314263,3.137708,10,13,5,8,9,247
2.426789,3.115918,10,13,5,9,10,251
2.685346,3.106689,10,13,5,10,11,255
4.174047,3.11298,10,13,5,11,12,3
4.157286,-0.037682,10,13,5,14,15,7
2.760494,-0.046735,10,13,5,15,16,11
2.744885,-0.060677,10,14,6,1,2,15
