BIOZ1_MAG,BIOZ1_PHASE,EXC_FREQ_KHZ,EXC_PIN,GND_PIN,SNS_AP_PIN,SNS_AN_PIN,PACKET_NUMBER
3.939884,3.10542,10,11,3,4,5,159
2.687791,3.106766,10,11,3,5,6,161
2.229407,3.095342,10,11,3,6,7,165
2.170384,3.127532,10,11,3,7,8,169
2.520599,3.117619,10,11,3,8,9,173
4.345111,3.10636,10,11,3,9,10,177
3.977462,-0.040319,10,11,3,12,13,181
2.709947,-0.054894,10,11,3,13,14,185
2.19124,-0.03899,10,11,3,14,15,189
2.19163,-0.039075,10,11,3,15,16,193
2.634066,-0.043204,10,12,4,1,2,197
4.198872,-0.04162,10,12,4,2,3,201
4.658184,3.105963,10,12,4,5,6,205
2.687807,3.106471,10,12,4,6,7,209
2.207823,3.119628,10,12,4,7,8,213
2.133159,3.135327,10,12,4,8,9,217
2.595811,3.104503,10,12,4,9,10,221
3.956762,3.114764,10,12,4,10,11,225
4.274901,-0.049326,10,12,4,13,14,229
2.595885,-0.03703,10,12,4,14,15,233
2.137384,-0.049238,10,12,4,15,16,237
2.266903,-0.053394,10,13,5,1,2,241
2.633835,-0.043236,10,13,5,2,3,245
4.641606,-0.043788,10,13,5,3,4,249
4.329211,3.097471,10,13,5,6,7,253
2.596031,3.104681,10,13,5,7,8,1
2.115868,3.117848,10,13,5,8,9,5
2.153265,3.110178,10,13,5,9,10,9
2.428717,3.115904,10,13,5,10,11,13
4.436504,3.107469,10,13,5,11,12,17
4.10677,-0.042876,10,13,5,14,15,21
2.542027,-0.045272,10,13,5,15,16,25
2.229281,-0.04637,10,14,6,1,2,29
2.191507,-0.039194,10,14,6,2,3,33
2.763836,-0.046947,10,14,6,3,4,37
3.961985,-0.050064,10,14,6,4,5,41
4.161942,3.103815,10,14,6,7,8,45
2.48401,3.124197,10,14,6,8,9,49
2.1541,3.10992,10,14,6,9,10,53
2.024469,3.11585,10,14,6,10,11,57
2.817643,3.102546,10,14,6,11,12,61
4.069814,3.102487,10,14,6,12,13,65
4.161695,-0.03775,10,14,6,15,16,69
2.671873,-0.048972,10,15,7,1,2,73
2.154087,-0.031378,10,15,7,2,3,77
2.267627,-0.053181,10,15,7,3,4,81
2.3594,-0.050426,10,15,7,4,5,85
4.124313,-0.033633,10,15,7,5,6,89
3.99553,3.110894,10,15,7,8,9,93
2.55901,3.111135,10,15,7,9,10,97
2.062156,3.10796,10,15,7,10,11,101
2.413231,3.100518,10,15,7,11,12,105
2.467266,3.10932,10,15,7,12,13,109
4.17871,3.113031,10,15,7,13,14,113
4.327913,-0.043834,10,16,8,1,2,117
2.541725,-0.045215,10,16,8,2,3,121
2.267294,-0.053184,10,16,8,3,4,125
2.007641,-0.044191,10,16,8,4,5,129
2.58003,-0.051395,10,16,8,5,6,133
4.107734,-0.042842,10,16,8,6,7,137
4.307029,3.110268,10,16,8,9,10,141
2.466833,3.109257,10,16,8,10,11,145
2.412379,3.100541,10,16,8,11,12,149
2.061731,3.107985,10,16,8,12,13,153
2.558481,3.11116,10,16,8,13,14,157
4.139776,3.117118,10,16,8,14,15,161
4.200476,-0.041583,10,1,9,2,3,165
2.672833,-0.049289,10,1,9,3,4,169
1.993141,-0.063542,10,1,9,4,5,173
2.192213,-0.039129,10,1,9,5,6,177
2.619383,-0.057711,10,1,9,6,7,181
4.331,-0.044173,10,1,9,7,8,185
3.941802,3.105116,10,1,9,10,11,189
2.818313,3.102433,10,1,9,11,12,193
2.062711,3.107759,10,1,9,12,13,197
2.154349,3.110011,10,1,9,13,14,201
2.559545,3.110962,10,1,9,14,15,205
4.179089,3.112916,10,1,9,15,16,209
4.329701,-0.043884,10,2,10,3,4,213
2.413375,-0.041103,10,2,10,4,5,217
2.192399,-0.03895,10,2,10,5,6,221
2.268096,-0.053207,10,2,10,6,7,225
2.672659,-0.048966,10,2,10,7,8,229
4.017179,-0.04427,10,2,10,8,9,233
4.552008,3.096739,10,2,10,11,12,237
2.521861,3.117599,10,2,10,12,13,241
2.154154,3.110127,10,2,10,13,14,245
2.116736,3.117944,10,2,10,14,15,249
2.59725,3.10475,10,2,10,15,16,253
4.233484,3.117797,10,3,11,1,2,1
3.925559,-0.046006,10,3,11,4,5,5
2.726927,-0.04099,10,3,11,5,6,9
2.268166,-0.053294,10,3,11,6,7,13
2.267968,-0.053326,10,3,11,7,8,17
2.543379,-0.045379,10,3,11,8,9,21
4.368762,-0.047603,10,3,11,9,10,25
4.109803,3.098584,10,3,11,12,13,29
2.559994,3.111024,10,3,11,13,14,33
2.15466,3.110161,10,3,11,14,15,37
2.154599,3.110102,10,3,11,15,16,41
2.57612,3.125402,10,4,12,1,2,45
4.178995,3.112562,10,4,12,2,3,49
4.605277,-0.040391,10,4,12,5,6,53
2.726372,-0.041112,10,4,12,6,7,57
2.35948,-0.05066,10,4,12,7,8,61
2.062472,-0.033924,10,4,12,8,9,65
2.710193,-0.05501,10,4,12,9,10,69
3.978879,-0.040488,10,4,12,10,11,73
4.254105,3.10494,10,4,12,13,14,77
2.521647,3.117421,10,4,12,14,15,81
2.116556,3.117766,10,4,12,15,16,85
2.245842,3.112252,10,5,13,1,2,89
2.613106,3.119252,10,5,13,2,3,93
4.620734,3.109762,10,5,13,3,4,97
4.237705,-0.045238,10,5,13,6,7,101
2.672032,-0.049,10,5,13,7,8,105
2.062221,-0.033721,10,5,13,8,9,109
2.267499,-0.0533,10,5,13,9,10,113
2.451334,-0.047764,10,5,13,10,11,117
4.443571,-0.054691,10,5,13,11,12,121
4.108466,3.098666,10,5,13,14,15,125
2.52149,3.117596,10,5,13,15,16,129
2.208791,3.119784,10,6,14,1,2,133
2.154599,3.110102,10,6,14,2,3,137
2.743553,3.114425,10,6,14,3,4,141
3.86687,3.113787,10,6,14,4,5,145
4.201462,-0.041549,10,6,14,7,8,149
2.467999,-0.032414,10,6,14,8,9,153
2.230125,-0.046186,10,6,14,9,10,157
2.046656,-0.052114,10,6,14,10,11,161
2.802775,-0.052496,10,6,14,11,12,165
4.169198,-0.059616,10,6,14,12,13,169
4.087973,3.111889,10,6,14,15,16,173
2.597007,3.105013,10,7,15,1,2,177
2.117227,3.118126,10,7,15,2,3,181
2.246827,3.112407,10,7,15,3,4,185
2.376098,3.1071,10,7,15,4,5,189
4.088228,3.111714,10,7,15,5,6,193
4.034082,-0.03511,10,7,15,8,9,197
2.673377,-0.049167,10,7,15,9,10,201
2.046783,-0.052289,10,7,15,10,11,205
2.43613,-0.063483,10,7,15,11,12,209
2.54353,-0.045407,10,7,15,12,13,213
4.146961,-0.046794,10,7,15,13,14,217
4.162307,3.103846,10,8,16,1,2,221
2.521569,3.117509,10,8,16,2,3,225
2.245715,3.112133,10,8,16,3,4,229
1.987202,3.124344,10,8,16,4,5,233
2.596876,3.1046,10,8,16,5,6,237
4.329713,3.097561,10,8,16,6,7,241
4.330485,-0.044116,10,8,16,9,10,245
2.50516,-0.039013,10,8,16,10,11,249
2.435696,-0.063398,10,8,16,11,12,253
2.100172,-0.041496,10,8,16,12,13,1
2.634908,-0.042992,10,8,16,13,14,5
4.146222,-0.046709,10,8,16,14,15,9
4.199608,3.100035,10,9,1,2,3,13
2.688194,3.106621,10,9,1,3,4,17
2.024463,3.115997,10,9,1,4,5,21
2.191692,3.102577,10,9,1,5,6,25
2.726202,3.100656,10,9,1,6,7,29
4.529218,3.108537,10,9,1,7,8,33
3.979341,-0.040398,10,9,1,10,11,37
2.840583,-0.05805,10,9,1,11,12,41
2.099929,-0.041586,10,9,1,12,13,45
2.229671,-0.046308,10,9,1,13,14,49
2.672349,-0.049057,10,9,1,14,15,53
4.162295,-0.0376,10,9,1,15,16,57
4.290853,3.101404,10,10,2,3,4,61
2.391495,3.122975,10,10,2,4,5,65
2.245182,3.112246,10,10,2,5,6,69
2.153454,3.110209,10,10,2,6,7,73
2.650209,3.112845,10,10,2,7,8,77
3.956516,3.11494,10,10,2,8,9,81
4.572226,-0.056639,10,10,2,11,12,85
2.580183,-0.051423,10,10,2,12,13,89
2.229476,-0.046339,10,10,2,13,14,93
2.229539,-0.046279,10,10,2,14,15,97
2.542178,-0.0453,10,10,2,15,16,101
4.275759,-0.049057,10,11,3,1,2,105
3.903144,3.109552,10,11,3,4,5,109
2.68843,3.106653,10,11,3,5,6,113
2.245842,3.112252,10,11,3,6,7,117
2.208342,3.119662,10,11,3,7,8,121
2.558945,3.110928,10,11,3,8,9,125
4.345504,3.106244,10,11,3,9,10,129
4.184429,-0.050684,10,11,3,12,13,133
2.596722,-0.036965,10,11,3,13,14,137
2.175887,-0.056324,10,11,3,14,15,141
2.100303,-0.041671,10,11,3,15,16,145
2.634066,-0.043204,10,12,4,1,2,149
4.19987,-0.041733,10,12,4,2,3,153
4.603909,3.101342,10,12,4,5,6,157
2.704489,3.120477,10,12,4,6,7,161
2.207823,3.119628,10,12,4,7,8,165
2.207499,3.119625,10,12,4,8,9,169
2.65006,3.112726,10,12,4,9,10,173
3.993679,3.110532,10,12,4,10,11,177
4.16146,-0.037868,10,12,4,13,14,181
2.618384,-0.057748,10,12,4,14,15,185
2.099626,-0.041736,10,12,4,15,16,189
2.229482,-0.046486,10,13,5,1,2,193
2.633605,-0.043267,10,13,5,2,3,197
4.641331,-0.04376,10,13,5,3,4,201
4.215887,3.10886,10,13,5,6,7,205
2.596567,3.104656,10,13,5,7,8,209
2.153649,3.110093,10,13,5,8,9,213
2.15371,3.110152,10,13,5,9,10,217
2.42893,3.115935,10,13,5,10,11,221
4.420815,3.098883,10,13,5,11,12,225
4.199359,-0.04153,10,13,5,14,15,229
2.504572,-0.039047,10,13,5,15,16,233
2.175703,-0.056502,10,14,6,1,2,237
2.137638,-0.049294,10,14,6,2,3,241
2.764,-0.046975,10,14,6,3,4,245
3.925337,-0.046125,10,14,6,4,5,249
4.216257,3.108891,10,14,6,7,8,253
2.521726,3.117333,10,14,6,8,9,1
2.170777,3.127301,10,14,6,9,10,5
2.024532,3.115763,10,14,6,10,11,9
2.802117,3.089062,10,14,6,11,12,13
4.161942,3.103815,10,14,6,12,13,17
4.070286,-0.039016,10,14,6,15,16,21
2.596795,-0.036905,10,15,7,1,2,25
2.100238,-0.041583,10,15,7,2,3,29
2.268096,-0.053207,10,15,7,3,4,33
2.321821,-0.043633,10,15,7,4,5,37
4.109186,-0.042864,10,15,7,5,6,41
4.071713,3.102702,10,15,7,8,9,45
2.651694,3.112797,10,15,7,9,10,49
2.025059,3.116003,10,15,7,10,11,53
2.413231,3.100518,10,15,7,11,12,57
2.672976,3.09257,10,15,7,12,13,61
4.179077,3.113063,10,15,7,13,14,65
4.291108,-0.040217,10,16,8,1,2,69
2.542098,-0.045213,10,16,8,2,3,73
2.267358,-0.053125,10,16,8,3,4,77
1.954261,-0.055473,10,16,8,4,5,81
2.580337,-0.051451,10,16,8,5,6,85
4.0539,-0.04822,10,16,8,6,7,89
4.307662,3.110271,10,16,8,9,10,93
2.467196,3.10926,10,16,8,10,11,97
2.413163,3.100459,10,16,8,11,12,101
2.267223,3.088496,10,16,8,12,13,105
2.521041,3.117681,10,16,8,13,14,109
4.178226,3.112941,10,16,8,14,15,113
4.200607,-0.041671,10,1,9,2,3,117
2.672432,-0.049144,10,1,9,3,4,121
1.955018,-0.05573,10,1,9,4,5,125
2.192083,-0.0391,10,1,9,5,6,129
2.543235,-0.045498,10,1,9,6,7,133
4.627106,-0.051966,10,1,9,7,8,137
3.941445,3.105232,10,1,9,10,11,141
2.818472,3.102552,10,1,9,11,12,145
2.283876,3.104856,10,1,9,12,13,149
2.116742,3.117797,10,1,9,13,14,153
2.651146,3.112822,10,1,9,14,15,157
4.179337,3.112887,10,1,9,15,16,161
4.329578,-0.043944,10,2,10,3,4,165
2.3594,-0.050426,10,2,10,4,5,169
2.229734,-0.046248,10,2,10,5,6,173
2.13794,-0.048997,10,2,10,6,7,177
2.93217,-0.055526,10,2,10,7,8,181
3.925192,-0.045743,10,2,10,8,9,185
4.550798,3.096793,10,2,10,11,12,189
2.672818,3.092598,10,2,10,12,13,193
2.116736,3.117944,10,2,10,13,14,197
2.208923,3.119756,10,2,10,14,15,201
2.559842,3.111053,10,2,10,15,16,205
4.272062,3.113904,10,3,11,1,2,209
3.96361,-0.049968,10,3,11,4,5,213
2.710744,-0.054888,10,3,11,5,6,217
2.192145,-0.039041,10,3,11,6,7,221
2.527704,-0.060374,10,3,11,7,8,225
2.467636,-0.032417,10,3,11,8,9,229
4.330987,-0.044025,10,3,11,9,10,233
4.200844,3.10004,10,3,11,12,13,237
2.521861,3.117599,10,3,11,13,14,241
2.154026,3.110155,10,3,11,14,15,245
2.079196,3.126099,10,3,11,15,16,249
2.612973,3.118839,10,4,12,1,2,253
4.216269,3.108744,10,4,12,2,3,1
4.604873,-0.040423,10,4,12,5,6,5
2.764086,-0.047063,10,4,12,6,7,9
2.526747,-0.060558,10,4,12,7,8,13
2.099935,-0.041733,10,4,12,8,9,17
2.634141,-0.043145,10,4,12,9,10,21
4.016486,-0.044479,10,4,12,10,11,25
4.179349,3.11274,10,4,12,13,14,29
2.505018,3.102461,10,4,12,14,15,33
2.02471,3.115794,10,4,12,15,16,37
2.245906,3.112311,10,5,13,1,2,41
2.613261,3.119223,10,5,13,2,3,45
4.621152,3.109646,10,5,13,3,4,49
4.328942,-0.043947,10,5,13,6,7,53
2.878208,-0.063342,10,5,13,7,8,57
2.045811,-0.052063,10,5,13,8,9,61
2.137692,-0.049088,10,5,13,9,10,65
2.450682,-0.04771,10,5,13,10,11,69
4.442528,-0.054725,10,5,13,11,12,73
4.124196,3.1079,10,5,13,14,15,77
2.429287,3.115938,10,5,13,15,16,81
2.245906,3.112311,10,6,14,1,2,85
2.11661,3.117973,10,6,14,2,3,89
2.742661,3.114506,10,6,14,3,4,93
3.86641,3.113843,10,6,14,4,5,97
4.497799,-0.049757,10,6,14,7,8,101
2.467489,-0.032389,10,6,14,8,9,105
2.13794,-0.048997,10,6,14,9,10,109
2.00859,-0.04427,10,6,14,10,11,113
2.802442,-0.05244,10,6,14,11,12,117
4.185032,-0.050534,10,6,14,12,13,121
4.050118,3.116003,10,6,14,15,16,125
2.63481,3.098982,10,7,15,1,2,129
2.079496,3.126249,10,7,15,2,3,133
2.246173,3.112255,10,7,15,3,4,137
2.338567,3.114073,10,7,15,4,5,141
4.163532,3.103852,10,7,15,5,6,145
3.980163,-0.040423,10,7,15,8,9,149
2.59764,-0.036987,10,7,15,9,10,153
2.046963,-0.052258,10,7,15,10,11,157
2.382925,-0.073126,10,7,15,11,12,161
2.657913,-0.063539,10,7,15,12,13,165
4.185908,-0.050707,10,7,15,13,14,169
4.217378,3.108838,10,8,16,1,2,173
2.52179,3.11754,10,8,16,2,3,177
2.246243,3.112167,10,8,16,3,4,181
1.950023,3.132954,10,8,16,4,5,185
2.559321,3.110931,10,8,16,5,6,189
4.254599,3.10503,10,8,16,6,7,193
4.368132,-0.047753,10,8,16,9,10,197
2.467782,-0.032445,10,8,16,10,11,201
2.382642,-0.07307,10,8,16,11,12,205
2.252829,-0.070175,10,8,16,12,13,209
2.635534,-0.043105,10,8,16,13,14,213
4.185281,-0.050563,10,8,16,14,15,217
4.162307,3.103846,10,9,1,2,3,221
2.689069,3.10654,10,9,1,3,4,225
1.986966,3.1244,10,9,1,4,5,229
2.208404,3.119722,10,9,1,5,6,233
2.613424,3.119048,10,9,1,6,7,237
4.438211,3.107358,10,9,1,7,8,241
3.978868,-0.040341,10,9,1,10,11,245
2.840245,-0.057994,10,9,1,11,12,249
2.290419,-0.076646,10,9,1,12,13,253
2.229274,-0.046223,10,9,1,13,14,1
2.634059,-0.043057,10,9,1,14,15,5
4.237346,-0.045416,10,9,1,15,16,9
4.290853,3.101404,10,10,2,3,4,13
2.391705,3.123006,10,10,2,4,5,17
2.207748,3.119863,10,10,2,5,6,21
2.245245,3.112305,10,10,2,6,7,25
2.687875,3.106678,10,10,2,7,8,29
3.993893,3.110798,10,10,2,8,9,33
4.587904,-0.048342,10,10,2,11,12,37
2.747865,-0.060538,10,10,2,12,13,41
2.252033,-0.070152,10,10,2,13,14,45
2.229407,-0.046251,10,10,2,14,15,49
2.633902,-0.043029,10,10,2,15,16,53
4.237214,-0.045328,10,11,3,1,2,57
3.903144,3.109552,10,11,3,4,5,61
2.688194,3.106621,10,11,3,5,6,65
2.283262,3.105057,10,11,3,6,7,69
2.283198,3.104998,10,11,3,7,8,73
2.483342,3.124398,10,11,3,8,9,77
4.307298,3.110093,10,11,3,9,10,81
4.199359,-0.04153,10,11,3,12,13,85
2.596105,-0.036852,10,11,3,13,14,89
2.137311,-0.049003,10,11,3,14,15,93
2.175438,-0.056299,10,11,3,15,16,97
2.541509,-0.045394,10,12,4,1,2,101
4.198504,-0.041651,10,12,4,2,3,105
4.565867,3.104907,10,12,4,5,6,109
2.7417,3.114382,10,12,4,6,7,113
2.282933,3.104907,10,12,4,7,8,117
2.07798,3.125941,10,12,4,8,9,121
2.633292,3.098382,10,12,4,9,10,125
3.993317,3.110648,10,12,4,10,11,129
4.197769,-0.041714,10,12,4,13,14,133
2.541509,-0.045394,10,12,4,14,15,137
2.137003,-0.049153,10,12,4,15,16,141
2.190794,-0.039112,10,13,5,1,2,145
2.633441,-0.043091,10,13,5,2,3,149
4.64078,-0.043704,10,13,5,3,4,153
4.214266,3.10897,10,13,5,6,7,157
2.687168,3.106584,10,13,5,7,8,161
2.040727,3.134363,10,13,5,8,9,165
2.245118,3.112186,10,13,5,9,10,169
2.42893,3.115935,10,13,5,10,11,173
4.41964,3.098937,10,13,5,11,12,177
4.144769,-0.046834,10,13,5,14,15,181
2.579884,-0.051514,10,13,5,15,16,185
2.137257,-0.04921,10,14,6,1,2,189
2.153083,-0.031593,10,14,6,2,3,193
2.763101,-0.046893,10,14,6,3,4,197
3.832119,-0.047588,10,14,6,4,5,201
4.382232,3.102484,10,14,6,7,8,205
2.483132,3.124219,10,14,6,8,9,209
2.244922,3.112155,10,14,6,9,10,213
2.023754,3.115873,10,14,6,10,11,217
2.800881,3.089054,10,14,6,11,12,221
4.160706,3.103956,10,14,6,12,13,225
4.123357,-0.033814,10,14,6,15,16,229
2.579957,-0.051454,10,15,7,1,2,233
2.099739,-0.04147,10,15,7,2,3,237
2.267358,-0.053125,10,15,7,3,4,241
2.396998,-0.056916,10,15,7,4,5,245
4.199596,-0.041411,10,15,7,5,6,249
3.994593,3.11086,10,15,7,8,9,253
2.650359,3.112964,10,15,7,9,10,1
2.024698,3.116088,10,15,7,10,11,5
2.337733,3.114243,10,15,7,11,12,9
2.672583,3.092567,10,15,7,12,13,13
4.216614,3.10907,10,15,7,13,14,17
4.237466,-0.045357,10,16,8,1,2,21
2.542623,-0.045238,10,16,8,2,3,25
2.229602,-0.04622,10,16,8,3,4,29
2.045811,-0.052063,10,16,8,4,5,33
2.580417,-0.051539,10,16,8,5,6,37
4.274997,-0.048972,10,16,8,6,7,41
4.307662,3.110271,10,16,8,9,10,45
2.428779,3.11611,10,16,8,10,11,49
2.374902,3.107267,10,16,8,11,12,53
2.26689,3.088493,10,16,8,12,13,57
2.612566,3.119277,10,16,8,13,14,61
4.161071,3.103987,10,16,8,14,15,65
4.200607,-0.041671,10,1,9,2,3,69
2.672674,-0.04926,10,1,9,3,4,73
2.046604,-0.05232,10,1,9,4,5,77
2.229936,-0.046364,10,1,9,5,6,81
2.710913,-0.055063,10,1,9,6,7,85
4.368787,-0.047897,10,1,9,7,8,89
3.94179,3.105263,10,1,9,10,11,93
2.818313,3.102433,10,1,9,11,12,97
2.267769,3.088236,10,1,9,12,13,101
2.208667,3.119665,10,1,9,13,14,105
2.597486,3.104634,10,1,9,14,15,109
4.233352,3.117885,10,1,9,15,16,113
4.329713,-0.044031,10,2,10,3,4,117
2.451119,-0.047795,10,2,10,4,5,121
2.267904,-0.053385,10,2,10,5,6,125
2.267833,-0.053297,10,2,10,6,7,129
2.63499,-0.04308,10,2,10,7,8,133
4.016702,-0.044214,10,2,10,8,9,137
4.550669,3.096734,10,2,10,11,12,141
2.726287,3.100569,10,2,10,12,13,145
2.208466,3.119781,10,2,10,13,14,149
2.192077,3.102639,10,2,10,14,15,153
2.613416,3.119195,10,2,10,15,16,157
4.217509,3.10875,10,3,11,1,2,161
3.887915,-0.041935,10,3,11,4,5,165
2.727413,-0.041075,10,3,11,5,6,169
2.359887,-0.050451,10,3,11,6,7,173
2.268372,-0.05341,10,3,11,7,8,177
2.619843,-0.057649,10,3,11,8,9,181
4.407777,-0.051318,10,3,11,9,10,185
4.147701,3.094714,10,3,11,12,13,189
2.597493,3.104487,10,3,11,13,14,193
2.155044,3.110076,10,3,11,14,15,197
2.208729,3.119724,10,3,11,15,16,201
2.597118,3.104337,10,4,12,1,2,205
4.179479,3.112653,10,4,12,2,3,209
4.643392,-0.043899,10,4,12,5,6,213
2.85633,-0.045006,10,4,12,6,7,217
2.267974,-0.053473,10,4,12,7,8,221
2.230138,-0.04648,10,4,12,8,9,225
2.634923,-0.043286,10,4,12,9,10,229
4.017202,-0.044564,10,4,12,10,11,233
4.179349,3.11274,10,4,12,13,14,237
2.559473,3.110903,10,4,12,14,15,241
2.208673,3.119518,10,4,12,15,16,245
2.208791,3.119784,10,5,13,1,2,249
2.613956,3.11917,10,5,13,2,3,253
4.622106,3.10962,10,5,13,3,4,1
4.36786,-0.047577,10,5,13,6,7,5
2.634528,-0.043142,10,5,13,7,8,9
2.191885,-0.038984,10,5,13,8,9,13
2.214463,-0.063367,10,5,13,9,10,17
2.41345,-0.04119,10,5,13,10,11,21
4.40557,-0.051298,10,5,13,11,12,25
4.124558,3.107931,10,5,13,14,15,29
2.596641,3.104716,10,5,13,15,16,33
2.208598,3.119753,10,6,14,1,2,37
2.116736,3.117944,10,6,14,2,3,41
2.743476,3.114365,10,6,14,3,4,45
3.86641,3.113843,10,6,14,4,5,49
4.201094,-0.04158,10,6,14,7,8,53
2.581249,-0.051474,10,6,14,8,9,57
2.191754,-0.038956,10,6,14,9,10,61
2.046598,-0.052173,10,6,14,10,11,65
2.802275,-0.052412,10,6,14,11,12,69
4.146469,-0.046737,10,6,14,12,13,73
4.163402,3.103939,10,6,14,15,16,77
2.576928,3.125909,10,7,15,1,2,81
2.079867,3.126165,10,7,15,2,3,85
2.246706,3.112141,10,7,15,3,4,89
2.338501,3.114014,10,7,15,4,5,93
4.180697,3.112805,10,7,15,5,6,97
4.072451,-0.039123,10,7,15,8,9,101
2.636161,-0.043218,10,7,15,9,10,105
2.047264,-0.052255,10,7,15,10,11,109
2.345052,-0.066706,10,7,15,11,12,113
2.696381,-0.069174,10,7,15,12,13,117
4.20296,-0.041719,10,7,15,13,14,121
4.163909,3.103736,10,8,16,1,2,125
2.559929,3.110818,10,8,16,2,3,129
2.209254,3.119611,10,8,16,3,4,133
1.987849,3.124262,10,8,16,4,5,137
2.597493,3.104487,10,8,16,5,6,141
4.217998,3.108841,10,8,16,6,7,145
4.369294,-0.047806,10,8,16,9,10,149
2.451916,-0.047877,10,8,16,10,11,153
2.360308,-0.050536,10,8,16,11,12,157
2.344773,-0.06665,10,8,16,12,13,161
2.635534,-0.043105,10,8,16,13,14,165
4.597927,-0.068376,10,8,16,14,15,169
4.162802,3.103789,10,9,1,2,3,173
2.651229,3.112735,10,9,1,3,4,177
2.024944,3.115884,10,9,1,4,5,181
2.154282,3.110099,10,9,1,5,6,185
2.651229,3.112735,10,9,1,6,7,189
4.346008,3.106335,10,9,1,7,8,193
3.979341,-0.040398,10,9,1,10,11,197
2.840165,-0.058053,10,9,1,11,12,201
2.344084,-0.066655,10,9,1,12,13,205
2.192015,-0.039013,10,9,1,13,14,209
2.954979,-0.073793,10,9,1,14,15,213
4.329848,-0.044119,10,9,1,15,16,217
4.291363,3.101347,10,10,2,3,4,221
2.391921,3.12289,10,10,2,4,5,225
2.191754,3.102637,10,10,2,5,6,229
2.207948,3.119747,10,10,2,6,7,233
2.650682,3.11276,10,10,2,7,8,237
3.881961,3.123465,10,10,2,8,9,241
4.572368,-0.056726,10,10,2,11,12,245
2.748028,-0.060567,10,10,2,12,13,249
2.229539,-0.046279,10,10,2,13,14,253
2.267429,-0.053213,10,10,2,14,15,1
2.634215,-0.043086,10,10,2,15,16,5
4.367477,-0.047609,10,11,3,1,2,9
3.902801,3.109521,10,11,3,4,5,13
2.688589,3.106624,10,11,3,5,6,17
2.208535,3.119693,10,11,3,6,7,21
2.283534,3.105001,10,11,3,7,8,25
2.429356,3.115997,10,11,3,8,9,29
4.382864,3.102634,10,11,3,9,10,33
4.145003,-0.046715,10,11,3,12,13,37
2.633746,-0.043001,10,11,3,13,14,41
2.191048,-0.039021,10,11,3,14,15,45
2.19124,-0.03899,10,11,3,15,16,49
2.709235,-0.054987,10,12,4,1,2,53
4.220824,-0.054453,10,12,4,2,3,57
4.641186,3.09792,10,12,4,5,6,61
2.741785,3.114294,10,12,4,6,7,65
2.282327,3.104961,10,12,4,7,8,69
2.07835,3.125856,10,12,4,8,9,73
2.687647,3.1065,10,12,4,9,10,77
3.993554,3.11062,10,12,4,10,11,81
4.199253,-0.041736,10,12,4,13,14,85
2.579739,-0.051632,10,12,4,14,15,89
2.191116,-0.039109,10,12,4,15,16,93
2.267038,-0.053422,10,13,5,1,2,97
2.671254,-0.049153,10,13,5,2,3,101
4.6412,-0.043819,10,13,5,3,4,105
4.252842,3.105081,10,13,5,6,7,109
2.595958,3.104622,10,13,5,7,8,113
2.078344,3.126003,10,13,5,8,9,117
2.20743,3.119713,10,13,5,9,10,121
2.428717,3.115904,10,13,5,10,11,125
4.420552,3.098911,10,13,5,11,12,129
4.328305,-0.043949,10,13,5,14,15,133
2.54143,-0.045306,10,13,5,15,16,137
2.229016,-0.046313,10,14,6,1,2,141
2.137384,-0.049238,10,14,6,2,3,145
2.763265,-0.046921,10,14,6,3,4,149
3.92406,-0.046043,10,14,6,4,5,153
4.199122,3.099944,10,14,6,7,8,157
2.391435,3.122769,10,14,6,8,9,161
2.191569,3.102458,10,14,6,9,10,165
2.024057,3.115729,10,14,6,10,11,169
2.763429,3.094643,10,14,6,11,12,173
4.107513,3.098485,10,14,6,12,13,177
4.198991,-0.041561,10,14,6,15,16,181
2.579957,-0.051454,10,15,7,1,2,185
2.099864,-0.041499,10,15,7,2,3,189
2.22986,-0.046129,10,15,7,3,4,193
2.321407,-0.043548,10,15,7,4,5,197
4.200713,-0.041464,10,15,7,5,6,201
3.99613,3.11075,10,15,7,8,9,205
2.688985,3.106627,10,15,7,9,10,209
2.025059,3.116003,10,15,7,10,11,213
2.359813,3.091229,10,15,7,11,12,217
2.635065,3.098572,10,15,7,12,13,221
4.346389,3.106366,10,15,7,13,14,225
4.291873,-0.040302,10,16,8,1,2,229
2.542703,-0.045325,10,16,8,2,3,233
2.229337,-0.046163,10,16,8,3,4,237
1.954144,-0.055444,10,16,8,4,5,241
2.672107,-0.048941,10,16,8,5,6,245
4.200095,-0.041467,10,16,8,6,7,249
4.420414,3.098999,10,16,8,9,10,253
2.466833,3.109257,10,16,8,10,11,1
2.358979,3.091252,10,16,8,11,12,5
2.266755,3.088521,10,16,8,12,13,9
2.596178,3.1048,10,16,8,13,14,13
4.480714,3.083447,10,16,8,14,15,17
4.201106,-0.041728,10,1,9,2,3,21
2.672833,-0.049289,10,1,9,3,4,25
1.955134,-0.055758,10,1,9,4,5,29
2.268372,-0.05341,10,1,9,5,6,33
2.673068,-0.049258,10,1,9,6,7,37
4.368911,-0.047838,10,1,9,7,8,41
3.942148,3.105147,10,1,9,10,11,45
2.819062,3.102379,10,1,9,11,12,49
2.268443,3.088095,10,1,9,12,13,53
2.20886,3.119696,10,1,9,13,14,57
2.635542,3.09834,10,1,9,14,15,61
4.309198,3.110102,10,1,9,15,16,65
4.330742,-0.044144,10,2,10,3,4,69
2.375614,-0.034614,10,2,10,4,5,73
2.268102,-0.053354,10,2,10,5,6,77
2.267904,-0.053385,10,2,10,6,7,81
2.672901,-0.049082,10,2,10,7,8,85
3.979577,-0.040426,10,2,10,8,9,89
4.552549,3.096683,10,2,10,11,12,93
2.673219,3.092454,10,2,10,12,13,97
2.246439,3.112198,10,2,10,13,14,101
2.246503,3.112257,10,2,10,14,15,105
2.651694,3.112797,10,2,10,15,16,109
4.36394,3.114755,10,3,11,1,2,113
3.926025,-0.046063,10,3,11,4,5,117
2.764805,-0.046822,10,3,11,5,6,121
2.268102,-0.053354,10,3,11,6,7,125
2.35968,-0.050482,10,3,11,7,8,129
2.543228,-0.045351,10,3,11,8,9,133
4.460781,-0.046242,10,3,11,9,10,137
4.109314,3.098641,10,3,11,12,13,141
2.597177,3.10469,10,3,11,13,14,145
2.360094,3.091173,10,3,11,14,15,149
2.154916,3.110104,10,3,11,15,16,153
2.726866,3.100249,10,4,12,1,2,157
4.179361,3.112593,10,4,12,2,3,161
4.643944,-0.043955,10,4,12,5,6,165
2.802624,-0.052762,10,4,12,6,7,169
2.344163,-0.06689,10,4,12,7,8,173
2.192412,-0.039245,10,4,12,8,9,177
2.749257,-0.060852,10,4,12,9,10,181
4.017555,-0.044533,10,4,12,10,11,185
4.292771,3.101119,10,4,12,13,14,189
2.878729,3.078019,10,4,12,14,15,193
2.116868,3.117769,10,4,12,15,16,197
2.338011,3.114186,10,5,13,1,2,201
2.651072,3.112763,10,5,13,2,3,205
4.621427,3.109617,10,5,13,3,4,209
4.29237,-0.040211,10,5,13,6,7,213
2.710507,-0.054919,10,5,13,7,8,217
2.176466,-0.056378,10,5,13,8,9,221
2.35954,-0.050454,10,5,13,9,10,225
2.489468,-0.054165,10,5,13,10,11,229
4.406343,-0.051236,10,5,13,11,12,233
4.535666,3.088295,10,5,13,14,15,237
2.559241,3.111019,10,5,13,15,16,241
2.321683,3.097988,10,6,14,1,2,245
2.11667,3.118032,10,6,14,2,3,249
2.726842,3.10069,10,6,14,3,4,253
3.941779,3.10541,10,6,14,4,5,1
4.201212,-0.041521,10,6,14,7,8,5
2.543451,-0.04532,10,6,14,8,9,9
2.360094,-0.05042,10,6,14,9,10,13
2.062827,-0.033715,10,6,14,10,11,17
2.787014,-0.066078,10,6,14,11,12,21
4.092953,-0.052145,10,6,14,12,13,25
4.163402,3.103939,10,6,14,15,16,29
2.689365,3.106924,10,7,15,1,2,33
2.117478,3.118069,10,7,15,2,3,37
2.246439,3.112198,10,7,15,3,4,41
2.338428,3.114101,10,7,15,4,5,45
4.164027,3.103795,10,7,15,5,6,49
4.01802,-0.044443,10,7,15,8,9,53
2.765298,-0.046907,10,7,15,9,10,57
2.101046,-0.041693,10,7,15,10,11,61
2.34478,-0.066797,10,7,15,11,12,65
2.56657,-0.066425,10,7,15,12,13,69
4.354213,-0.056372,10,7,15,13,14,73
4.292383,3.101234,10,8,16,1,2,77
2.559321,3.110931,10,8,16,2,3,81
2.208798,3.119637,10,8,16,3,4,85
1.895615,3.122404,10,8,16,4,5,89
2.651229,3.112735,10,8,16,5,6,93
4.255224,3.105033,10,8,16,6,7,97
4.460529,-0.046361,10,8,16,9,10,101
2.527483,-0.060405,10,8,16,10,11,105
2.397636,-0.056969,10,8,16,11,12,109
2.176657,-0.056347,10,8,16,12,13,113
2.786849,-0.06605,10,8,16,13,14,117
4.31386,-0.052663,10,8,16,14,15,121
4.161565,3.103931,10,9,1,2,3,125
2.688513,3.106565,10,9,1,3,4,129
1.932751,3.113809,10,9,1,4,5,133
2.283334,3.104969,10,9,1,5,6,137
2.650839,3.112732,10,9,1,6,7,141
4.345885,3.106276,10,9,1,7,8,145
3.979104,-0.040369,10,9,1,10,11,149
2.824859,-0.071449,10,9,1,11,12,153
2.176017,-0.056352,10,9,1,12,13,157
2.343805,-0.066599,10,9,1,13,14,161
2.786195,-0.066084,10,9,1,14,15,165
4.328685,-0.043918,10,9,1,15,16,169
4.290598,3.101432,10,10,2,3,4,173
2.374626,3.107176,10,10,2,4,5,177
2.320724,3.098039,10,10,2,5,6,181
2.207686,3.119803,10,10,2,6,7,185
2.612803,3.119161,10,10,2,7,8,189
4.0858,3.111996,10,10,2,8,9,193
4.571825,-0.05667,10,10,2,11,12,197
2.617909,-0.057517,10,10,2,12,13,201
2.305157,-0.060005,10,10,2,13,14,205
2.343321,-0.066574,10,10,2,14,15,209
2.709549,-0.054897,10,10,2,15,16,213
4.366835,-0.047611,10,11,3,1,2,217
3.94062,3.105404,10,11,3,4,5,221
2.742258,3.114503,10,11,3,5,6,225
2.207817,3.119775,10,11,3,6,7,229
2.245779,3.112192,10,11,3,7,8,233
2.52112,3.117594,10,11,3,8,9,237
4.399219,3.111222,10,11,3,9,10,241
4.145378,-0.046831,10,11,3,12,13,245
2.763586,-0.046831,10,11,3,13,14,249
2.343461,-0.066602,10,11,3,14,15,253
2.305705,-0.060118,10,11,3,15,16,1
2.671964,-0.049207,10,12,4,1,2,5
4.18308,-0.05075,10,12,4,2,3,9
4.657631,3.106019,10,12,4,5,6,13
2.7417,3.114382,10,12,4,6,7,17
2.245519,3.112102,10,12,4,7,8,21
2.116245,3.117763,10,12,4,8,9,25
2.741459,3.114351,10,12,4,9,10,29
3.993204,3.110589,10,12,4,10,11,33
4.328318,-0.044096,10,12,4,13,14,37
2.747632,-0.060717,10,12,4,14,15,41
2.266769,-0.053365,10,12,4,15,16,45
2.267038,-0.053422,10,13,5,1,2,49
2.671412,-0.049181,10,13,5,2,3,53
4.625471,-0.051944,10,13,5,3,4,57
4.253215,3.105112,10,13,5,6,7,61
2.595958,3.104622,10,13,5,7,8,65
2.115928,3.117907,10,13,5,8,9,69
2.282862,3.104995,10,13,5,9,10,73
2.503984,3.102512,10,13,5,10,11,77
4.42029,3.098939,10,13,5,11,12,81
4.274247,-0.049034,10,13,5,14,15,85
2.671329,-0.049094,10,13,5,15,16,89
2.251906,-0.070271,10,14,6,1,2,93
2.137257,-0.04921,10,14,6,2,3,97
2.763672,-0.046918,10,14,6,3,4,101
3.96175,-0.050036,10,14,6,4,5,105
4.199003,3.099885,10,14,6,7,8,109
2.520457,3.1175,10,14,6,8,9,113
2.282733,3.104876,10,14,6,9,10,117
2.115683,3.117817,10,14,6,10,11,121
2.725324,3.100591,10,14,6,11,12,125
4.069331,3.102543,10,14,6,12,13,129
4.236723,-0.045419,10,14,6,15,16,133
2.671714,-0.048944,10,15,7,1,2,137
2.099614,-0.041442,10,15,7,2,3,141
2.229072,-0.046107,10,15,7,3,4,145
2.358766,-0.050225,10,15,7,4,5,149
4.183174,-0.050396,10,15,7,5,6,153
4.04856,3.116113,10,15,7,8,9,157
2.725878,3.100713,10,15,7,9,10,161
2.116233,3.118057,10,15,7,10,11,165
2.321334,3.098132,10,15,7,11,12,169
2.46661,3.109373,10,15,7,12,13,173
4.329064,3.097706,10,15,7,13,14,177
4.32817,-0.043862,10,16,8,1,2,181
2.541876,-0.045244,10,16,8,2,3,185
2.22894,-0.046079,10,16,8,3,4,189
1.991839,-0.063232,10,16,8,4,5,193
2.617672,-0.057401,10,16,8,5,6,197
4.274368,-0.048975,10,16,8,6,7,201
4.398697,3.111279,10,16,8,9,10,205
2.520371,3.117735,10,16,8,10,11,209
2.358212,3.091334,10,16,8,11,12,213
1.986438,3.124454,10,16,8,12,13,217
2.763171,3.094906,10,16,8,13,14,221
4.048446,3.116054,10,16,8,14,15,225
4.200737,-0.041759,10,1,9,2,3,229
2.672833,-0.049289,10,1,9,3,4,233
2.008482,-0.044536,10,1,9,4,5,237
2.268038,-0.053413,10,1,9,5,6,241
2.710676,-0.055095,10,1,9,6,7,245
4.368651,-0.047809,10,1,9,7,8,249
3.942025,3.105235,10,1,9,10,11,253
2.781141,3.108233,10,1,9,11,12,1
1.988029,3.124146,10,1,9,12,13,5
2.376172,3.107012,10,1,9,13,14,9
2.468153,3.109003,10,1,9,14,15,13
4.309198,3.110102,10,1,9,15,16,17
4.329713,-0.044031,10,2,10,3,4,21
2.413314,-0.041309,10,2,10,4,5,25
2.267705,-0.053416,10,2,10,5,6,29
2.267563,-0.053241,10,2,10,6,7,33
2.672274,-0.049116,10,2,10,7,8,37
4.054623,-0.048305,10,2,10,8,9,41
4.55148,3.096649,10,2,10,11,12,45
2.559466,3.11105,10,2,10,12,13,49
2.398131,3.084598,10,2,10,13,14,53
2.116736,3.117944,10,2,10,14,15,57
2.651619,3.112738,10,2,10,15,16,61
4.347041,3.106222,10,3,11,1,2,65
3.963969,-0.050084,10,3,11,4,5,69
2.764813,-0.046969,10,3,11,5,6,73
2.398063,-0.057054,10,3,11,6,7,77
2.268436,-0.053351,10,3,11,7,8,81
2.63546,-0.043165,10,3,11,8,9,85
4.445684,-0.054917,10,3,11,9,10,89
4.110047,3.098556,10,3,11,12,13,93
2.765212,3.094773,10,3,11,13,14,97
2.154916,3.110104,10,3,11,14,15,101
2.24677,3.112201,10,3,11,15,16,105
2.575821,3.125311,10,4,12,1,2,109
4.217772,3.108575,10,4,12,2,3,113
4.681157,-0.04738,10,4,12,5,6,117
2.894343,-0.050469,10,4,12,6,7,121
2.267775,-0.053504,10,4,12,7,8,125
2.19222,-0.039276,10,4,12,8,9,129
2.71132,-0.055208,10,4,12,9,10,133
4.017555,-0.044533,10,4,12,10,11,137
4.368651,3.093783,10,4,12,13,14,141
2.467427,3.108997,10,4,12,14,15,145
2.208479,3.119487,10,4,12,15,16,149
2.208598,3.119753,10,5,13,1,2,153
2.650989,3.112851,10,5,13,2,3,157
4.621557,3.109677,10,5,13,3,4,161
4.405433,-0.05121,10,5,13,6,7,165
2.597177,-0.036902,10,5,13,7,8,169
2.138067,-0.049026,10,5,13,8,9,173
2.305705,-0.060118,10,5,13,9,10,177
2.505082,-0.038925,10,5,13,10,11,181
4.444363,-0.054776,10,5,13,11,12,185
4.146117,3.094677,10,5,13,14,15,189
2.650682,3.11276,10,5,13,15,16,193
2.154026,3.110155,10,6,14,1,2,197
2.11667,3.118032,10,6,14,2,3,201
2.742824,3.114478,10,6,14,3,4,205
3.957679,3.114945,10,6,14,4,5,209
4.16279,-0.037656,10,6,14,7,8,213
2.580716,-0.051448,10,6,14,8,9,217
2.267826,-0.05315,10,6,14,9,10,221
2.137746,-0.048882,10,6,14,10,11,225
2.74851,-0.060504,10,6,14,11,12,229
4.054978,-0.048274,10,6,14,12,13,233
4.216996,3.108954,10,6,14,15,16,237
2.559675,3.111375,10,7,15,1,2,241
2.079561,3.126162,10,7,15,2,3,245
2.208991,3.119668,10,7,15,3,4,249
2.376172,3.107012,10,7,15,4,5,253
4.14199,3.116864,10,7,15,5,6,1
4.146598,-0.046825,10,7,15,8,9,5
2.710905,-0.054916,10,7,15,9,10,9
2.138829,-0.049195,10,7,15,10,11,13
2.344502,-0.06674,10,7,15,11,12,17
2.414311,-0.04136,10,7,15,12,13,21
4.315533,-0.05292,10,7,15,13,14,25
4.292249,3.101322,10,8,16,1,2,29
2.521419,3.117537,10,8,16,2,3,33
2.208211,3.11969,10,8,16,3,4,37
1.987382,3.124228,10,8,16,4,5,41
2.596949,3.104659,10,8,16,5,6,45
4.254599,3.10503,10,8,16,6,7,49
4.42199,-0.042763,10,8,16,9,10,53
2.543084,-0.04547,10,8,16,10,11,57
2.344223,-0.066684,10,8,16,11,12,61
2.008357,-0.044361,10,8,16,12,13,65
2.748759,-0.06062,10,8,16,13,14,69
4.092709,-0.052117,10,8,16,14,15,73
4.161565,3.103931,10,9,1,2,3,77
2.650367,3.112817,10,9,1,3,4,81
1.98691,3.124341,10,9,1,4,5,85
2.208404,3.119722,10,9,1,5,6,89
2.650839,3.112732,10,9,1,6,7,93
4.399742,3.111166,10,9,1,7,8,97
3.978519,-0.040372,10,9,1,10,11,101
2.787101,-0.066166,10,9,1,11,12,105
2.008118,-0.044304,10,9,1,12,13,109
2.344084,-0.066655,10,9,1,13,14,113
2.580804,-0.051683,10,9,1,14,15,117
4.330228,-0.044088,10,9,1,15,16,121
4.29186,3.101438,10,10,2,3,4,125
2.429356,3.115997,10,10,2,4,5,129
2.245512,3.112249,10,10,2,5,6,133
2.208011,3.119806,10,10,2,6,7,137
2.650442,3.112876,10,10,2,7,8,141
4.048572,3.115966,10,10,2,8,9,145
4.573312,-0.056752,10,10,2,11,12,149
2.450613,-0.047769,10,10,2,12,13,153
2.343527,-0.066542,10,10,2,13,14,157
2.191364,-0.038871,10,10,2,14,15,161
2.672115,-0.049088,10,10,2,15,16,165
4.275759,-0.049057,10,11,3,1,2,169
3.97817,3.101189,10,11,3,4,5,173
2.742824,3.114478,10,11,3,5,6,177
2.283398,3.105029,10,11,3,6,7,181
2.245912,3.112164,10,11,3,7,8,185
2.575573,3.125721,10,11,3,8,9,189
4.399742,3.111166,10,11,3,9,10,193
4.10871,-0.042955,10,11,3,12,13,197
2.748518,-0.060651,10,11,3,13,14,201
2.137692,-0.049088,10,11,3,14,15,205
2.267698,-0.053269,10,11,3,15,16,209
2.596266,-0.037027,10,12,4,1,2,213
4.199371,-0.041677,10,12,4,2,3,217
4.604456,3.101286,10,12,4,5,6,221
2.742111,3.114238,10,12,4,6,7,225
2.245652,3.112073,10,12,4,7,8,229
2.170709,3.127388,10,12,4,8,9,233
2.612966,3.118986,10,12,4,9,10,237
3.994266,3.110535,10,12,4,10,11,241
4.366601,-0.047877,10,12,4,13,14,245
2.504806,-0.03931,10,12,4,14,15,249
2.229482,-0.046486,10,12,4,15,16,253
2.213431,-0.063582,10,13,5,1,2,1
2.633366,-0.043151,10,13,5,2,3,5
4.641331,-0.04376,10,13,5,3,4,9
4.25259,3.105109,10,13,5,6,7,13
2.633284,3.098529,10,13,5,7,8,17
2.115802,3.117936,10,13,5,8,9,21
2.207561,3.119685,10,13,5,9,10,25
2.466185,3.109164,10,13,5,10,11,29
4.420552,3.098911,10,13,5,11,12,33
4.069204,-0.038962,10,13,5,14,15,37
2.633828,-0.043089,10,13,5,15,16,41
2.191699,-0.039163,10,14,6,1,2,45
2.137638,-0.049294,10,14,6,2,3,49
2.763672,-0.046918,10,14,6,3,4,53
4.000086,-0.05395,10,14,6,4,5,57
4.177494,3.112879,10,14,6,7,8,61
2.520906,3.117415,10,14,6,8,9,65
2.1915,3.102546,10,14,6,9,10,69
2.061685,3.107632,10,14,6,10,11,73
2.725809,3.100506,10,14,6,11,12,77
3.994254,3.110682,10,14,6,12,13,81
4.236975,-0.045447,10,14,6,15,16,85
2.542551,-0.045297,10,15,7,1,2,89
2.099739,-0.04147,10,15,7,2,3,93
2.229205,-0.046135,10,15,7,3,4,97
2.450751,-0.047651,10,15,7,4,5,101
4.146093,-0.046621,10,15,7,5,6,105
4.124674,3.107991,10,15,7,8,9,109
2.650906,3.112938,10,15,7,9,10,113
2.062034,3.107988,10,15,7,10,11,117
2.283734,3.105032,10,15,7,11,12,121
2.430071,3.116003,10,15,7,12,13,125
4.216733,3.109129,10,15,7,13,14,129
4.236963,-0.0453,10,16,8,1,2,133
2.5424,-0.045269,10,16,8,2,3,137
2.229337,-0.046163,10,16,8,3,4,141
2.045811,-0.052063,10,16,8,4,5,145
2.618213,-0.057426,10,16,8,5,6,149
4.236963,-0.0453,10,16,8,6,7,153
4.436755,3.107587,10,16,8,9,10,157
2.504416,3.102721,10,16,8,10,11,161
2.320993,3.09813,10,16,8,11,12,165
2.024103,3.116082,10,16,8,12,13,169
2.483342,3.124398,10,16,8,13,14,173
4.123345,3.107926,10,16,8,14,15,177
4.200987,-0.041787,10,1,9,2,3,181
2.672909,-0.049229,10,1,9,3,4,185
2.046604,-0.05232,10,1,9,4,5,189
2.268443,-0.053498,10,1,9,5,6,193
2.710913,-0.055063,10,1,9,6,7,197
4.368911,-0.047838,10,1,9,7,8,201
3.942025,3.105235,10,1,9,10,11,205
2.764805,3.094771,10,1,9,11,12,209
2.025185,3.115828,10,1,9,12,13,213
2.117113,3.11786,10,1,9,13,14,217
2.576717,3.125583,10,1,9,14,15,221
4.25561,3.104917,10,1,9,15,16,225
4.330485,-0.044116,10,2,10,3,4,229
2.450835,-0.047885,10,2,10,4,5,233
2.321414,-0.043695,10,2,10,5,6,237
2.359613,-0.050541,10,2,10,6,7,241
2.672667,-0.049113,10,2,10,7,8,245
4.130625,-0.055976,10,2,10,8,9,249
4.551609,3.096708,10,2,10,11,12,253
2.429858,3.115972,10,2,10,12,13,1
2.11661,3.117973,10,2,10,13,14,5
2.154087,3.110215,10,2,10,14,15,9
2.613416,3.119195,10,2,10,15,16,13
4.216626,3.108923,10,3,11,1,2,17
4.017077,-0.044477,10,3,11,4,5,21
2.764485,-0.046913,10,3,11,5,6,25
2.35954,-0.050454,10,3,11,6,7,29
2.267698,-0.053269,10,3,11,7,8,33
2.543379,-0.045379,10,3,11,8,9,37
4.368379,-0.047634,10,3,11,9,10,41
4.033477,3.106627,10,3,11,12,13,45
2.635221,3.098544,10,3,11,13,14,49
2.154599,3.110102,10,3,11,14,15,53
2.116921,3.117976,10,3,11,15,16,57
2.613513,3.118813,10,4,12,1,2,61
4.179113,3.112621,10,4,12,2,3,65
4.681157,-0.04738,10,4,12,5,6,69
2.80237,-0.052646,10,4,12,6,7,73
2.306325,-0.060319,10,4,12,7,8,77
2.154545,-0.031698,10,4,12,8,9,81
2.619228,-0.057683,10,4,12,9,10,85
4.017555,-0.044533,10,4,12,10,11,89
4.292516,3.101147,10,4,12,13,14,93
2.521947,3.117365,10,4,12,14,15,97
2.116742,3.117797,10,4,12,15,16,101
2.246173,3.112255,10,5,13,1,2,105
2.613416,3.119195,10,5,13,2,3,109
4.621427,3.109617,10,5,13,3,4,113
4.329958,-0.043912,10,5,13,6,7,117
2.672583,-0.049026,10,5,13,7,8,121
2.100048,-0.041467,10,5,13,8,9,125
2.175955,-0.056412,10,5,13,9,10,129
2.451479,-0.047792,10,5,13,10,11,133
4.444099,-0.054748,10,5,13,11,12,137
4.070516,3.102696,10,5,13,14,15,141
2.596949,3.104659,10,5,13,15,16,145
2.208991,3.119668,10,6,14,1,2,149
2.116862,3.117916,10,6,14,2,3,153
2.74339,3.114453,10,6,14,3,4,157
3.979566,3.101314,10,6,14,4,5,161
4.201094,-0.04158,10,6,14,7,8,165
2.467782,-0.032445,10,6,14,8,9,169
2.138381,-0.049023,10,6,14,9,10,173
2.046598,-0.052173,10,6,14,10,11,177
2.749404,-0.060586,10,6,14,11,12,181
4.001602,-0.053766,10,6,14,12,13,185
4.18007,3.11295,10,6,14,15,16,189
2.597853,3.104931,10,7,15,1,2,193
2.080114,3.126108,10,7,15,2,3,197
2.246974,3.112085,10,7,15,3,4,201
2.414454,3.100204,10,7,15,4,5,205
4.180946,3.112777,10,7,15,5,6,209
4.110896,-0.043062,10,7,15,8,9,213
2.635616,-0.043193,10,7,15,9,10,217
2.08516,-0.059817,10,7,15,10,11,221
2.306592,-0.060228,10,7,15,11,12,225
2.414024,-0.041303,10,7,15,12,13,229
4.109803,-0.043008,10,7,15,13,14,233
4.217127,3.108866,10,8,16,1,2,237
2.521569,3.117509,10,8,16,2,3,241
2.208473,3.119634,10,8,16,3,4,245
2.024469,3.11585,10,8,16,4,5,249
2.521269,3.117565,10,8,16,5,6,253
4.253467,3.105084,10,8,16,6,7,1
4.421465,-0.042707,10,8,16,9,10,5
2.488961,-0.054286,10,8,16,10,11,9
2.343944,-0.066627,10,8,16,11,12,13
2.046297,-0.052176,10,8,16,12,13,17
2.581249,-0.051474,10,8,16,13,14,21
4.184914,-0.050594,10,8,16,14,15,25
4.161813,3.103902,10,9,1,2,3,29
2.68843,3.106653,10,9,1,3,4,33
2.062221,3.107872,10,9,1,4,5,37
2.11649,3.117854,10,9,1,5,6,41
2.613424,3.119048,10,9,1,6,7,45
4.345885,3.106276,10,9,1,7,8,49
3.978519,-0.040372,10,9,1,10,11,53
2.801784,-0.052474,10,9,1,11,12,57
2.046054,-0.05212,10,9,1,12,13,61
2.191562,-0.038987,10,9,1,13,14,65
2.580417,-0.051539,10,9,1,14,15,69
4.275505,-0.049029,10,9,1,15,16,73
4.290974,3.101463,10,10,2,3,4,77
2.466687,3.109286,10,10,2,4,5,81
2.153515,3.110268,10,10,2,5,6,85
2.153582,3.110181,10,10,2,6,7,89
2.613032,3.119192,10,10,2,7,8,93
4.215743,3.109095,10,10,2,8,9,97
4.572226,-0.056639,10,10,2,11,12,101
2.46654,-0.032279,10,10,2,12,13,105
2.175438,-0.056299,10,10,2,13,14,109
2.191302,-0.038931,10,10,2,14,15,113
2.634059,-0.043057,10,10,2,15,16,117
4.182937,-0.050515,10,11,3,1,2,121
3.978047,3.101277,10,11,3,4,5,125
2.725401,3.10065,10,11,3,5,6,129
2.170384,3.127532,10,11,3,6,7,133
2.245245,3.112305,10,11,3,7,8,137
2.763664,3.094821,10,11,3,8,9,141
4.270165,3.114042,10,11,3,9,10,145
4.015532,-0.044366,10,11,3,12,13,149
2.542106,-0.04536,10,11,3,13,14,153
2.137565,-0.04906,10,11,3,14,15,157
2.229337,-0.046163,10,11,3,15,16,161
2.633284,-0.043063,10,12,4,1,2,165
4.198754,-0.04168,10,12,4,2,3,169
4.656393,3.106073,10,12,4,5,6,173
2.725162,3.100619,10,12,4,6,7,177
2.282598,3.104904,10,12,4,7,8,181
2.358366,3.091011,10,12,4,8,9,185
2.611961,3.119096,10,12,4,9,10,189
3.993317,3.110648,10,12,4,10,11,193
4.182086,-0.050637,10,12,4,13,14,197
2.558272,-0.030758,10,12,4,14,15,201
2.190596,-0.038996,10,12,4,15,16,205
2.228953,-0.046373,10,13,5,1,2,209
2.633441,-0.043091,10,13,5,2,3,213
4.64078,-0.043704,10,13,5,3,4,217
4.236472,3.096202,10,13,5,6,7,221
2.595804,3.10465,10,13,5,7,8,225
2.282727,3.105023,10,13,5,8,9,229
2.15346,3.110062,10,13,5,9,10,233
2.466185,3.109164,10,13,5,10,11,237
4.435852,3.107466,10,13,5,11,12,241
4.106526,-0.042848,10,13,5,14,15,245
2.541502,-0.045247,10,13,5,15,16,249
2.190726,-0.039024,10,14,6,1,2,253
2.137003,-0.049153,10,14,6,2,3,1
2.762937,-0.046865,10,14,6,3,4,5
3.99926,-0.053924,10,14,6,4,5,9
4.214266,3.10897,10,14,6,7,8,13
2.649438,3.112692,10,14,6,8,9,17
2.153399,3.110002,10,14,6,9,10,21
2.024051,3.115876,10,14,6,10,11,25
2.725401,3.10065,10,14,6,11,12,29
3.902007,3.109399,10,14,6,12,13,33
4.160459,-0.037608,10,14,6,15,16,37
2.579877,-0.051367,10,15,7,1,2,41
2.099614,-0.041442,10,15,7,2,3,45
2.267025,-0.053128,10,15,7,3,4,49
2.488433,-0.053967,10,15,7,4,5,53
4.145237,-0.046596,10,15,7,5,6,57
4.237454,3.096383,10,15,7,8,9,61
2.613261,3.119223,10,15,7,9,10,65
2.062156,3.10796,10,15,7,10,11,69
2.300258,3.121532,10,15,7,11,12,73
2.37511,3.107298,10,15,7,12,13,77
4.086401,3.111999,10,15,7,13,14,81
4.161071,-0.037606,10,16,8,1,2,85
2.5424,-0.045269,10,16,8,2,3,89
2.229072,-0.046107,10,16,8,3,4,93
2.083615,-0.059537,10,16,8,4,5,97
2.542249,-0.045241,10,16,8,5,6,101
4.350618,-0.056271,10,16,8,6,7,105
4.291229,3.101435,10,16,8,9,10,109
2.466324,3.109283,10,16,8,10,11,113
2.282927,3.105054,10,16,8,11,12,117
1.986674,3.124398,10,16,8,12,13,121
2.52082,3.11765,10,16,8,13,14,125
4.291484,3.101407,10,16,8,14,15,129
4.200488,-0.04173,10,1,9,2,3,133
2.673068,-0.049258,10,1,9,3,4,137
2.123355,-0.067224,10,1,9,4,5,141
2.192796,-0.039182,10,1,9,5,6,145
2.787685,-0.066339,10,1,9,6,7,149
4.369949,-0.047951,10,1,9,7,8,153
3.980411,3.100994,10,1,9,10,11,157
2.765462,3.094658,10,1,9,11,12,161
1.987849,3.124262,10,1,9,12,13,165
2.079691,3.125986,10,1,9,13,14,169
2.764485,3.09468,10,1,9,14,15,173
4.233471,3.117944,10,1,9,15,16,177
4.329456,-0.044003,10,2,10,3,4,181
2.527111,-0.060408,10,2,10,4,5,185
2.191891,-0.039131,10,2,10,5,6,189
2.3825,-0.073041,10,2,10,6,7,193
2.672508,-0.049085,10,2,10,7,8,197
4.184665,-0.050566,10,2,10,8,9,201
4.55121,3.096677,10,2,10,11,12,205
2.429858,3.115972,10,2,10,12,13,209
2.11655,3.117913,10,2,10,13,14,213
2.283798,3.105091,10,2,10,14,15,217
2.559314,3.111078,10,2,10,15,16,221
4.179716,3.112771,10,3,11,1,2,225
4.001138,-0.053856,10,3,11,4,5,229
2.688825,-0.034937,10,3,11,5,6,233
2.436055,-0.063395,10,3,11,6,7,237
2.268231,-0.053235,10,3,11,7,8,241
2.672583,-0.049026,10,3,11,8,9,245
4.330093,-0.044,10,3,11,9,10,249
3.941199,3.105407,10,3,11,12,13,253
2.521932,3.117659,10,3,11,13,14,1
2.192275,3.102523,10,3,11,14,15,5
2.154404,3.110218,10,3,11,15,16,9
2.520984,3.117328,10,4,12,1,2,13
4.17812,3.112734,10,4,12,2,3,17
4.642027,-0.043904,10,4,12,5,6,21
2.878216,-0.063489,10,4,12,6,7,25
2.30564,-0.060177,10,4,12,7,8,29
2.305503,-0.060149,10,4,12,8,9,33
2.634379,-0.043261,10,4,12,9,10,37
4.016725,-0.044508,10,4,12,10,11,41
4.087025,3.111708,10,4,12,13,14,45
2.559249,3.110872,10,4,12,14,15,49
2.154289,3.109952,10,4,12,15,16,53
2.208466,3.119781,10,5,13,1,2,57
2.613187,3.119164,10,5,13,2,3,61
4.621701,3.109589,10,5,13,3,4,65
4.406343,-0.051236,10,5,13,6,7,69
2.63452,-0.042995,10,5,13,7,8,73
2.305698,-0.059971,10,5,13,8,9,77
2.229665,-0.046161,10,5,13,9,10,81
2.489172,-0.054108,10,5,13,10,11,85
4.444363,-0.054776,10,5,13,11,12,89
4.16279,3.103936,10,5,13,14,15,93
2.559089,3.111047,10,5,13,15,16,97
2.208598,3.119753,10,6,14,1,2,101
2.116862,3.117916,10,6,14,2,3,105
2.743227,3.114481,10,6,14,3,4,109
3.995305,3.110776,10,6,14,4,5,113
4.200463,-0.041436,10,6,14,7,8,117
2.71066,-0.0548,10,6,14,8,9,121
2.229993,-0.046158,10,6,14,9,10,125
2.100606,-0.041521,10,6,14,10,11,129
2.711465,-0.054942,10,6,14,11,12,133
3.925314,-0.045831,10,6,14,12,13,137
4.163154,3.103968,10,6,14,15,16,141
2.559755,3.111287,10,7,15,1,2,145
2.117167,3.118066,10,7,15,2,3,149
2.246243,3.112167,10,7,15,3,4,153
2.505457,3.102523,10,7,15,4,5,157
4.126029,3.107762,10,7,15,5,6,161
4.277658,-0.049195,10,7,15,8,9,165
2.635616,-0.043193,10,7,15,9,10,169
2.100796,-0.041637,10,7,15,10,11,173
2.306657,-0.060169,10,7,15,11,12,177
2.360167,-0.050507,10,7,15,12,13,181
4.147947,-0.046907,10,7,15,13,14,185
4.088112,3.111654,10,8,16,1,2,189
2.521719,3.117481,10,8,16,2,3,193
2.208342,3.119662,10,8,16,3,4,197
2.116616,3.117826,10,8,16,4,5,201
2.613808,3.119051,10,8,16,5,6,205
4.12555,3.107671,10,8,16,6,7,209
4.330742,-0.044144,10,8,16,9,10,213
2.505457,-0.039069,10,8,16,10,11,217
2.344707,-0.066709,10,8,16,11,12,221
2.008652,-0.044358,10,8,16,12,13,225
2.581636,-0.051618,10,8,16,13,14,229
4.223415,-0.054235,10,8,16,14,15,233
4.162919,3.103849,10,9,1,2,3,237
2.688589,3.106624,10,9,1,3,4,241
2.154093,3.110068,10,9,1,4,5,245
2.192145,3.102552,10,9,1,5,6,249
2.613187,3.119164,10,9,1,6,7,253
4.324573,3.118805,10,9,1,7,8,1
3.978407,-0.040432,10,9,1,10,11,5
2.748432,-0.060564,10,9,1,11,12,9
2.0083,-0.04442,10,9,1,12,13,13
2.229602,-0.04622,10,9,1,13,14,17
2.672115,-0.049088,10,9,1,14,15,21
4.274888,-0.049179,10,9,1,15,16,25
4.344079,3.106473,10,10,2,3,4,29
2.50375,3.102775,10,10,2,4,5,33
2.207424,3.11986,10,10,2,5,6,37
2.245112,3.112333,10,10,2,6,7,41
2.649737,3.112929,10,10,2,7,8,45
3.993418,3.110854,10,10,2,8,9,49
4.587359,-0.048286,10,10,2,11,12,53
2.412174,-0.04123,10,10,2,12,13,57
2.228682,-0.046169,10,10,2,13,14,61
2.266691,-0.053131,10,10,2,14,15,65
2.633046,-0.042947,10,10,2,15,16,69
4.145249,-0.046743,10,11,3,1,2,73
4.031333,3.106734,10,11,3,4,5,77
2.687715,3.106706,10,11,3,5,6,81
2.245245,3.112305,10,11,3,6,7,85
2.207424,3.11986,10,11,3,7,8,89
2.537481,3.132437,10,11,3,8,9,93
4.269163,3.114008,10,11,3,9,10,97
3.94004,-0.036191,10,11,3,12,13,101
2.542329,-0.045328,10,11,3,13,14,105
2.266897,-0.053247,10,11,3,14,15,109
2.137758,-0.049176,10,11,3,15,16,113
2.449969,-0.047863,10,12,4,1,2,117
4.198504,-0.041651,10,12,4,2,3,121
4.64078,3.097889,10,12,4,5,6,125
2.687883,3.106531,10,12,4,6,7,129
2.282869,3.104848,10,12,4,7,8,133
2.153716,3.110005,10,12,4,8,9,137
2.595965,3.104475,10,12,4,9,10,141
3.994853,3.110538,10,12,4,10,11,145
4.145883,-0.047034,10,12,4,13,14,149
2.725809,-0.041086,10,12,4,14,15,153
2.137257,-0.04921,10,12,4,15,16,157
2.099442,-0.041767,10,13,5,1,2,161
2.595576,-0.036973,10,13,5,2,3,165
4.641186,-0.043672,10,13,5,3,4,169
4.328562,3.097615,10,13,5,6,7,173
2.650217,3.112698,10,13,5,7,8,177
2.116179,3.117851,10,13,5,8,9,181
2.207755,3.119716,10,13,5,9,10,185
2.46684,3.10911,10,13,5,10,11,189
4.420427,3.098852,10,13,5,11,12,193
4.274755,-0.049091,10,13,5,14,15,197
2.541804,-0.045303,10,13,5,15,16,201
2.061801,-0.033842,10,14,6,1,2,205
2.153783,-0.031675,10,14,6,2,3,209
2.763265,-0.046921,10,14,6,3,4,213
3.99926,-0.053924,10,14,6,4,5,217
4.215887,3.10886,10,14,6,7,8,221
2.445988,3.131205,10,14,6,8,9,225
2.208086,3.119572,10,14,6,9,10,229
2.062046,3.107694,10,14,6,10,11,233
2.687883,3.106531,10,14,6,11,12,237
3.864595,3.113775,10,14,6,12,13,241
4.161448,-0.037721,10,14,6,15,16,245
2.450467,-0.047741,10,15,7,1,2,249
2.099798,-0.041411,10,15,7,2,3,253
2.267358,-0.053125,10,15,7,3,4,1
2.473549,-0.069427,10,15,7,4,5,5
4.108454,-0.042779,10,15,7,5,6,9
4.108698,3.098785,10,15,7,8,9,13
2.651064,3.11291,10,15,7,9,10,17
2.062402,3.107903,10,15,7,10,11,21
2.283462,3.105088,10,15,7,11,12,25
2.391914,3.123037,10,15,7,12,13,29
4.140631,3.117093,10,15,7,13,14,33
4.10749,-0.042814,10,16,8,1,2,37
2.542178,-0.0453,10,16,8,2,3,41
2.229205,-0.046135,10,16,8,3,4,45
2.12234,-0.066851,10,16,8,4,5,49
2.633977,-0.04297,10,16,8,5,6,53
4.237082,-0.045241,10,16,8,6,7,57
4.290598,3.101432,10,16,8,9,10,61
2.504267,3.102749,10,16,8,10,11,65
2.283191,3.105145,10,16,8,11,12,69
2.024343,3.116026,10,16,8,12,13,73
2.558481,3.11116,10,16,8,13,14,77
4.048446,3.116054,10,16,8,14,15,81
4.200987,-0.041787,10,1,9,2,3,85
2.672833,-0.049289,10,1,9,3,4,89
2.138327,-0.049229,10,1,9,4,5,93
2.230334,-0.046449,10,1,9,5,6,97
2.619383,-0.057711,10,1,9,6,7,101
4.33062,-0.044204,10,1,9,7,8,105
3.942148,3.105147,10,1,9,10,11,109
2.72685,3.100543,10,1,9,11,12,113
2.024767,3.115853,10,1,9,12,13,117
2.15441,3.11007,10,1,9,13,14,121
2.522011,3.117571,10,1,9,14,15,125
4.308821,3.11007,10,1,9,15,16,129
4.329456,-0.044003,10,2,10,3,4,133
2.527261,-0.060436,10,2,10,4,5,137
2.267634,-0.053329,10,2,10,5,6,141
2.192083,-0.0391,10,2,10,6,7,145
2.672984,-0.04917,10,2,10,7,8,149
4.017304,-0.044358,10,2,10,8,9,153
4.55242,3.096624,10,2,10,11,12,157
2.430291,3.115887,10,2,10,12,13,161
2.192536,3.102467,10,2,10,13,14,165
2.154727,3.110073,10,2,10,14,15,169
2.651379,3.112854,10,2,10,15,16,173
4.088112,3.111654,10,3,11,1,2,177
4.018146,-0.04453,10,3,11,4,5,181
2.764977,-0.046997,10,3,11,5,6,185
2.284212,-0.036733,10,3,11,6,7,189
2.322031,-0.043749,10,3,11,7,8,193
2.581709,-0.051558,10,3,11,8,9,197
4.330742,-0.044144,10,3,11,9,10,201
3.9214,3.119113,10,3,11,12,13,205
2.597258,3.104602,10,3,11,13,14,209
2.062711,3.107759,10,3,11,14,15,213
2.208991,3.119668,10,3,11,15,16,217
2.48439,3.123906,10,4,12,1,2,221
4.178983,3.112709,10,4,12,2,3,225
4.643813,-0.044014,10,4,12,5,6,229
2.726781,-0.041256,10,4,12,6,7,233
2.321624,-0.043811,10,4,12,7,8,237
2.19248,-0.039332,10,4,12,8,9,241
2.635005,-0.043374,10,4,12,9,10,245
4.016725,-0.044508,10,4,12,10,11,249
4.124698,3.107697,10,4,12,13,14,253
2.429865,3.115825,10,4,12,14,15,1
2.154349,3.110011,10,4,12,15,16,5
2.079508,3.125955,10,5,13,1,2,9
2.613882,3.11911,10,5,13,2,3,13
4.659963,3.106,10,5,13,3,4,17
4.23972,-0.045464,10,5,13,6,7,21
2.672742,-0.049054,10,5,13,7,8,25
2.176275,-0.056409,10,5,13,8,9,29
2.138006,-0.049085,10,5,13,9,10,33
2.489102,-0.054168,10,5,13,10,11,37
4.443973,-0.054807,10,5,13,11,12,41
4.108466,3.098666,10,5,13,14,15,45
2.55901,3.111135,10,5,13,15,16,49
2.079079,3.125981,10,6,14,1,2,53
2.1339,3.135598,10,6,14,2,3,57
2.743227,3.114481,10,6,14,3,4,61
3.995542,3.110747,10,6,14,4,5,65
4.200844,-0.041552,10,6,14,7,8,69
2.543228,-0.045351,10,6,14,8,9,73
2.191816,-0.038897,10,6,14,9,10,77
2.100422,-0.041552,10,6,14,10,11,81
2.710744,-0.054888,10,6,14,11,12,85
3.888135,-0.041816,10,6,14,12,13,89
4.163779,3.103823,10,6,14,15,16,93
2.430565,3.116125,10,7,15,1,2,97
2.117418,3.11801,10,7,15,2,3,101
2.246777,3.112054,10,7,15,3,4,105
2.467713,3.109088,10,7,15,4,5,109
4.126029,3.107762,10,7,15,5,6,113
4.072451,-0.039123,10,7,15,8,9,117
2.619843,-0.057649,10,7,15,9,10,121
2.101046,-0.041693,10,7,15,10,11,125
