BIOZ1_MAG,BIOZ1_PHASE,EXC_FREQ_KHZ,EXC_PIN,GND_PIN,SNS_AP_PIN,SNS_AN_PIN,PACKET_NUMBER
3.987744,2.715905,100,13,5,6,7,96
2.500979,2.669395,100,13,5,7,8,100
2.005003,2.785054,100,13,5,8,9,104
2.084731,2.647077,100,13,5,9,10,108
2.362566,2.6889,100,13,5,10,11,112
3.95018,2.751463,100,13,5,11,12,116
4.010136,-0.356638,100,13,5,14,15,120
2.55788,-0.381638,100,13,5,15,16,124
2.226058,-0.389964,100,14,6,1,2,128
2.181713,-0.40849,100,14,6,2,3,132
2.601162,-0.400993,100,14,6,3,4,136
3.852467,-0.412132,100,14,6,4,5,140
3.988797,2.622814,100,14,6,7,8,144
2.416103,2.746032,100,14,6,8,9,148
2.13297,2.625909,100,14,6,9,10,152
1.947924,2.621677,100,14,6,10,11,156
2.410767,2.707703,100,14,6,11,12,160
3.808561,2.742268,100,14,6,12,13,164
4.093149,-0.381705,100,14,6,15,16,168
2.552435,-0.417645,100,15,7,1,2,172
2.181931,-0.408457,100,15,7,2,3,176
2.190146,-0.366383,100,15,7,3,4,180
2.32389,-0.392371,100,15,7,4,5,184
4.081769,-0.426845,100,15,7,5,6,188
3.852342,2.72956,100,15,7,8,9,192
2.55218,2.614933,100,15,7,9,10,196
1.94825,2.621841,100,15,7,10,11,200
1.997287,2.738979,100,15,7,11,12,204
2.318647,2.709303,100,15,7,12,13,208
3.951884,2.751492,100,15,7,13,14,212
4.1441,-0.371552,100,16,8,1,2,216
2.551581,-0.417973,100,16,8,2,3,220
2.189568,-0.366249,100,16,8,3,4,224
1.926939,-0.303331,100,16,8,4,5,228
2.55839,-0.381573,100,16,8,5,6,232
4.076482,-0.472133,100,16,8,6,7,236
4.170159,2.647241,100,16,8,9,10,240
2.363037,2.649754,100,16,8,10,11,244
1.99252,2.692611,100,16,8,11,12,248
1.99252,2.692611,100,16,8,12,13,252
2.416103,2.746032,100,16,8,13,14,0
3.900964,2.740535,100,16,8,14,15,4
4.137177,-0.393845,100,1,9,2,3,8
2.609922,-0.3655,100,1,9,3,4,12
1.914037,-0.350884,100,1,9,4,5,16
2.190583,-0.366319,100,1,9,5,6,20
2.688105,-0.472303,100,1,9,6,7,24
4.267919,-0.428852,100,1,9,7,8,28
3.754364,2.681634,100,1,9,10,11,32
2.456564,2.688123,100,1,9,11,12,36
1.993245,2.692509,100,1,9,12,13,40
2.006133,2.785016,100,1,9,13,14,44
2.374774,2.766984,100,1,9,14,15,48
4.034151,2.703726,100,1,9,15,16,52
4.137177,-0.393845,100,2,10,3,4,56
2.374851,-0.374708,100,2,10,4,5,60
2.232199,-0.389294,100,2,10,5,6,64
2.224417,-0.472336,100,2,10,6,7,68
2.689347,-0.437767,100,2,10,7,8,72
3.952278,-0.390068,100,2,10,8,9,76
4.078612,2.692048,100,2,10,11,12,80
2.411248,2.707767,100,2,10,12,13,84
1.997287,2.738979,100,2,10,13,14,88
1.997287,2.738979,100,2,10,14,15,92
2.456319,2.688091,100,2,10,15,16,96
4.053402,2.772239,100,3,11,1,2,100
3.818087,-0.375082,100,3,11,4,5,104
2.701911,-0.369286,100,3,11,5,6,108
2.224345,-0.472236,100,3,11,6,7,112
2.271231,-0.45193,100,3,11,7,8,116
2.477456,-0.34102,100,3,11,8,9,120
4.171676,-0.450017,100,3,11,9,10,124
3.804441,2.718099,100,3,11,12,13,128
2.367528,2.728013,100,3,11,13,14,132
1.993245,2.692509,100,3,11,14,15,136
2.041154,2.71468,100,3,11,15,16,140
2.374223,2.767019,100,4,12,1,2,144
3.951617,2.75136,100,4,12,2,3,148
4.463219,-0.389159,100,4,12,5,6,152
2.736892,-0.421629,100,4,12,6,7,156
2.270479,-0.451927,100,4,12,7,8,160
2.109771,-0.318014,100,4,12,8,9,164
2.693328,-0.403476,100,4,12,9,10,168
3.985169,-0.449081,100,4,12,10,11,172
3.847623,2.705389,100,4,12,13,14,176
2.408986,2.66926,100,4,12,14,15,180
1.992585,2.692512,100,4,12,15,16,184
2.047253,2.759885,100,5,13,1,2,188
2.509155,2.743064,100,5,13,2,3,192
4.371461,2.754127,100,5,13,3,4,196
4.179622,-0.4058,100,5,13,6,7,200
2.641374,-0.454858,100,5,13,7,8,204
2.110049,-0.318081,100,5,13,8,9,208
2.274483,-0.411152,100,5,13,9,10,212
2.46646,-0.378239,100,5,13,10,11,216
4.037472,-0.414892,100,5,13,11,12,220
3.891827,2.669292,100,5,13,14,15,224
2.409226,2.669292,100,5,13,15,16,228
2.040884,2.714748,100,6,14,1,2,232
1.997416,2.73878,100,6,14,2,3,236
2.558983,2.759984,100,6,14,3,4,240
3.674996,2.757602,100,6,14,4,5,244
4.174482,-0.427953,100,6,14,7,8,248
2.477209,-0.341052,100,6,14,8,9,252
2.231904,-0.389227,100,6,14,9,10,0
2.057648,-0.33674,100,6,14,10,11,4
2.503935,-0.435348,100,6,14,11,12,8
3.951884,-0.390101,100,6,14,12,13,12
3.892215,2.669325,100,6,14,15,16,16
2.453126,2.724998,100,7,15,1,2,20
1.992254,2.738273,100,7,15,2,3,24
2.035402,2.713878,100,7,15,3,4,28
2.185568,2.774533,100,7,15,4,5,32
3.897655,2.716773,100,7,15,5,6,36
3.91125,-0.377419,100,7,15,8,9,40
2.602368,-0.401063,100,7,15,9,10,44
2.058397,-0.336843,100,7,15,10,11,48
2.134241,-0.42892,100,7,15,11,12,52
2.467525,-0.37821,100,7,15,12,13,56
4.127605,-0.505966,100,7,15,13,14,60
3.983458,2.738408,100,8,16,1,2,64
2.404454,2.706965,100,8,16,2,3,68
2.083826,2.691153,100,8,16,3,4,72
1.782991,2.825891,100,8,16,4,5,76
2.367841,2.727945,100,8,16,5,6,80
3.987017,2.692441,100,8,16,6,7,84
4.27266,-0.40731,100,8,16,9,10,88
2.425773,-0.357459,100,8,16,10,11,92
2.182507,-0.408592,100,8,16,11,12,96
2.139777,-0.385597,100,8,16,12,13,100
2.559321,-0.381676,100,8,16,13,14,104
4.044784,-0.392049,100,8,16,14,15,108
3.985964,2.692576,100,9,1,2,3,112
2.503766,2.706113,100,9,1,3,4,116
1.770373,2.774069,100,9,1,4,5,120
2.040681,2.714716,100,9,1,5,6,124
2.411085,2.707635,100,9,1,6,7,128
4.129707,2.725281,100,9,1,7,8,132
3.9447,-0.413677,100,9,1,10,11,136
2.601246,-0.401093,100,9,1,11,12,140
2.139137,-0.385694,100,9,1,12,13,144
2.149147,-0.34273,100,9,1,13,14,148
2.568519,-0.345741,100,9,1,14,15,152
4.170428,-0.450114,100,9,1,15,16,156
4.124869,2.703023,100,10,2,3,4,160
2.231092,2.752469,100,10,2,4,5,164
2.040208,2.714751,100,10,2,5,6,168
2.130745,2.669327,100,10,2,6,7,172
2.548051,2.687507,100,10,2,7,8,176
3.808561,2.742268,100,10,2,8,9,180
4.185421,-0.383709,100,10,2,11,12,184
2.568263,-0.345773,100,10,2,12,13,188
2.18935,-0.366281,100,10,2,13,14,192
2.10956,-0.318046,100,10,2,14,15,196
2.548133,-0.454185,100,10,2,15,16,200
4.184034,-0.383706,100,11,3,1,2,204
3.70791,2.694419,100,11,3,4,5,208
2.501889,2.669292,100,11,3,5,6,212
2.178133,2.647919,100,11,3,6,7,216
2.131307,2.669193,100,11,3,7,8,220
2.308209,2.850941,100,11,3,8,9,224
4.08621,2.737336,100,11,3,9,10,228
3.970602,-0.343636,100,11,3,12,13,232
2.558473,-0.381673,100,11,3,13,14,236
2.189639,-0.366348,100,11,3,14,15,240
2.181713,-0.40849,100,11,3,15,16,244
2.557543,-0.38157,100,12,4,1,2,248
4.042104,-0.392043,100,12,4,2,3,252
4.400114,2.679921,100,12,4,5,6,0
2.595003,2.633663,100,12,4,6,7,4
2.13032,2.669263,100,12,4,7,8,8
1.926238,2.838364,100,12,4,8,9,12
2.458428,2.725806,100,12,4,9,10,16
3.723383,2.768932,100,12,4,10,11,20
4.177404,-0.405861,100,12,4,13,14,24
2.608276,-0.365594,100,12,4,14,15,28
2.181061,-0.408586,100,12,4,15,16,32
2.230798,-0.389057,100,13,5,1,2,36
2.64384,-0.419582,100,13,5,2,3,40
4.547312,-0.41105,100,13,5,3,4,44
4.077128,2.646704,100,13,5,6,7,48
2.40835,2.669395,100,13,5,7,8,52
1.92643,2.838396,100,13,5,8,9,56
1.996426,2.73895,100,13,5,9,10,60
2.317648,2.709274,100,13,5,10,11,64
3.95018,2.751463,100,13,5,11,12,68
4.061565,-0.346528,100,13,5,14,15,72
2.551162,-0.417806,100,13,5,15,16,76
2.17679,-0.40933,100,14,6,1,2,80
2.149008,-0.34253,100,14,6,2,3,84
2.693597,-0.403444,100,14,6,3,4,88
3.852467,-0.412132,100,14,6,4,5,92
3.984092,2.66926,100,14,6,7,8,96
2.323733,2.74909,100,14,6,8,9,100
1.996888,2.738915,100,14,6,9,10,104
1.945719,2.66926,100,14,6,10,11,108
2.323501,2.749058,100,14,6,11,12,112
3.808561,2.742268,100,14,6,12,13,116
4.036667,-0.414957,100,14,6,15,16,120
2.559156,-0.381476,100,15,7,1,2,124
2.149222,-0.342498,100,15,7,2,3,128
2.274857,-0.411319,100,15,7,3,4,132
2.323965,-0.39247,100,15,7,4,5,136
4.081901,-0.426945,100,15,7,5,6,140
3.804061,2.718066,100,15,7,8,9,144
2.459409,2.725935,100,15,7,9,10,148
1.900147,2.693678,100,15,7,10,11,152
1.948313,2.716908,100,15,7,11,12,156
2.411007,2.707735,100,15,7,12,13,160
4.173931,2.624877,100,15,7,13,14,164
4.062102,-0.346596,100,16,8,1,2,168
2.5583,-0.381805,100,16,8,2,3,172
2.274183,-0.411085,100,16,8,3,4,176
1.926939,-0.303331,100,16,8,4,5,180
2.600818,-0.400925,100,16,8,5,6,184
4.085946,-0.404057,100,16,8,6,7,188
4.032684,2.703829,100,16,8,9,10,192
2.316258,2.66936,100,16,8,10,11,196
1.99252,2.692611,100,16,8,11,12,200
1.99252,2.692611,100,16,8,12,13,204
2.416025,2.746132,100,16,8,13,14,208
3.851699,2.729396,100,16,8,14,15,212
4.094914,-0.381676,100,1,9,2,3,216
2.651638,-0.38484,100,1,9,3,4,220
1.914228,-0.350851,100,1,9,4,5,224
2.190583,-0.366319,100,1,9,5,6,228
2.602024,-0.400996,100,1,9,6,7,232
4.223905,-0.417413,100,1,9,7,8,236
3.712363,2.719248,100,1,9,10,11,240
2.364133,2.688895,100,1,9,11,12,244
1.993245,2.692509,100,1,9,12,13,248
2.041154,2.71468,100,1,9,13,14,252
2.324504,2.749087,100,1,9,14,15,0
4.130943,2.725378,100,1,9,15,16,4
4.187644,-0.383647,100,2,10,3,4,8
2.374851,-0.374708,100,2,10,4,5,12
2.190365,-0.366351,100,2,10,5,6,16
2.190294,-0.366251,100,2,10,6,7,20
2.596548,-0.436669,100,2,10,7,8,24
3.994972,-0.402581,100,2,10,8,9,28
3.985964,2.692576,100,2,10,11,12,32
2.411489,2.707799,100,2,10,12,13,36
2.040884,2.714748,100,2,10,13,14,40
1.954914,2.764276,100,2,10,14,15,44
2.59481,2.669325,100,2,10,15,16,48
4.044784,2.749544,100,3,11,1,2,52
3.818087,-0.375082,100,3,11,4,5,56
2.651373,-0.384872,100,3,11,5,6,60
2.190294,-0.366251,100,3,11,6,7,64
2.182507,-0.408592,100,3,11,7,8,68
2.438057,-0.319586,100,3,11,8,9,72
4.365014,-0.408592,100,3,11,9,10,76
3.897014,2.71694,100,3,11,12,13,80
2.504184,2.706277,100,3,11,13,14,84
2.041154,2.71468,100,3,11,14,15,88
2.131733,2.669257,100,3,11,15,16,92
2.366979,2.728048,100,4,12,1,2,96
3.959777,2.774749,100,4,12,2,3,100
4.513132,-0.379914,100,4,12,5,6,104
2.743432,-0.387856,100,4,12,6,7,108
2.181784,-0.408589,100,4,12,7,8,112
2.071858,-0.292579,100,4,12,8,9,116
2.609141,-0.365597,100,4,12,9,10,120
3.944572,-0.413577,100,4,12,10,11,124
4.032814,2.634791,100,4,12,13,14,128
2.410767,2.707703,100,4,12,14,15,132
2.085422,2.647074,100,4,12,15,16,136
2.047253,2.759885,100,5,13,1,2,140
2.466866,2.763186,100,5,13,2,3,144
4.321567,2.744352,100,5,13,3,4,148
4.223063,-0.417478,100,5,13,6,7,152
2.596289,-0.436701,100,5,13,7,8,156
2.071997,-0.292447,100,5,13,8,9,160
2.189928,-0.366416,100,5,13,9,10,164
2.466706,-0.378207,100,5,13,10,11,168
4.081362,-0.426877,100,5,13,11,12,172
3.896237,2.716875,100,5,13,14,15,176
2.503604,2.632272,100,5,13,15,16,180
1.997351,2.738879,100,6,14,1,2,184
1.997615,2.738812,100,6,14,2,3,188
2.508993,2.743264,100,6,14,3,4,192
3.674996,2.757602,100,6,14,4,5,196
4.130531,-0.416247,100,6,14,7,8,200
2.477129,-0.340953,100,6,14,8,9,204
2.190146,-0.366383,100,6,14,9,10,208
2.006068,-0.356477,100,6,14,10,11,212
2.466786,-0.378307,100,6,14,11,12,216
3.859532,-0.38813,100,6,14,12,13,220
3.984887,2.669325,100,6,14,15,16,224
2.404771,2.706897,100,7,15,1,2,228
1.943403,2.716202,100,7,15,2,3,232
2.035337,2.713978,100,7,15,3,4,236
2.13509,2.755287,100,7,15,4,5,240
3.854253,2.72939,100,7,15,5,6,244
3.921517,-0.353848,100,7,15,8,9,248
2.610872,-0.365603,100,7,15,9,10,252
2.006598,-0.356612,100,7,15,10,11,0
2.140273,-0.385632,100,7,15,11,12,4
2.417386,-0.395499,100,7,15,12,13,8
4.045188,-0.55259,100,7,15,13,14,12
3.978095,2.715232,100,8,16,1,2,16
2.31181,2.708568,100,8,16,2,3,20
2.038444,2.714361,100,8,16,3,4,24
1.782755,2.825959,100,8,16,4,5,28
2.411807,2.707732,100,8,16,5,6,32
3.946008,2.727913,100,8,16,6,7,36
4.279692,-0.385697,100,8,16,9,10,40
2.477704,-0.340988,100,8,16,10,11,44
2.182507,-0.408592,100,8,16,11,12,48
2.098224,-0.361678,100,8,16,12,13,52
2.68775,-0.472236,100,8,16,13,14,56
3.989593,-0.425758,100,8,16,14,15,60
3.848391,2.705453,100,9,1,2,3,64
2.409304,2.669193,100,9,1,3,4,68
1.770373,2.774069,100,9,1,4,5,72
2.038576,2.669292,100,9,1,5,6,76
2.416344,2.746064,100,9,1,6,7,80
4.086342,2.737237,100,9,1,7,8,84
3.909563,-0.377448,100,9,1,10,11,88
2.517115,-0.361775,100,9,1,11,12,92
2.057237,-0.336805,100,9,1,12,13,96
2.225609,-0.43069,100,9,1,13,14,100
2.600902,-0.401025,100,9,1,14,15,104
4.125414,-0.438638,100,9,1,15,16,108
3.987873,2.715806,100,10,2,3,4,112
2.181496,2.733071,100,10,2,4,5,116
2.084939,2.691546,100,10,2,5,6,120
2.089051,2.735896,100,10,2,6,7,124
2.366507,2.727984,100,10,2,7,8,128
3.775175,2.779885,100,10,2,8,9,132
4.227758,-0.395593,100,10,2,11,12,136
2.516783,-0.361708,100,10,2,12,13,140
2.181566,-0.408622,100,10,2,13,14,144
2.189421,-0.366381,100,10,2,14,15,148
2.595604,-0.436566,100,10,2,15,16,152
4.135672,-0.393743,100,11,3,1,2,156
3.662809,2.707249,100,11,3,4,5,160
2.501889,2.669292,100,11,3,5,6,164
2.133321,2.712643,100,11,3,6,7,168
2.040681,2.714716,100,11,3,7,8,172
2.307979,2.850909,100,11,3,8,9,176
4.043444,2.749547,100,11,3,9,10,180
3.918917,-0.353843,100,11,3,12,13,184
2.551753,-0.417841,100,11,3,13,14,188
2.189639,-0.366348,100,11,3,14,15,192
2.225609,-0.43069,100,11,3,15,16,196
2.507662,-0.398391,100,12,4,1,2,200
4.042104,-0.392043,100,12,4,2,3,204
4.307061,2.65861,100,12,4,5,6,208
2.595086,2.704962,100,12,4,6,7,212
2.084523,2.691481,100,12,4,7,8,216
1.980045,2.857484,100,12,4,8,9,220
2.502525,2.706283,100,12,4,9,10,224
3.758355,2.730913,100,12,4,10,11,228
4.168152,-0.472429,100,12,4,13,14,232
2.5162,-0.361673,100,12,4,14,15,236
2.181061,-0.408586,100,12,4,15,16,240
2.138503,-0.385459,100,13,5,1,2,244
2.608452,-0.365462,100,13,5,2,3,248
4.590972,-0.421736,100,13,5,3,4,252
4.079877,2.714818,100,13,5,6,7,0
2.40835,2.669395,100,13,5,7,8,4
1.92643,2.838396,100,13,5,8,9,8
2.084731,2.691514,100,13,5,9,10,12
2.317648,2.709274,100,13,5,10,11,16
3.943658,2.728051,100,13,5,11,12,20
4.010006,-0.356538,100,13,5,14,15,24
2.6003,-0.40099,100,13,5,15,16,28
2.134597,-0.386271,100,14,6,1,2,32
2.138999,-0.385495,100,14,6,2,3,36
2.737077,-0.421497,100,14,6,3,4,40
3.803682,-0.423559,100,14,6,4,5,44
3.891439,2.66926,100,14,6,7,8,48
2.293052,2.811157,100,14,6,8,9,52
2.038373,2.66926,100,14,6,9,10,56
1.899958,2.693645,100,14,6,10,11,60
2.415862,2.746,100,14,6,11,12,64
3.900964,2.740535,100,14,6,12,13,68
4.036667,-0.414957,100,14,6,15,16,72
2.517455,-0.361511,100,15,7,1,2,76
2.139281,-0.385562,100,15,7,2,3,80
2.27463,-0.411352,100,15,7,3,4,84
2.374223,-0.374573,100,15,7,4,5,88
4.130531,-0.416247,100,15,7,5,6,92
3.896237,2.716875,100,15,7,8,9,96
2.548559,2.687572,100,15,7,9,10,100
1.946045,2.669424,100,15,7,10,11,104
2.040681,2.714716,100,15,7,11,12,108
2.411007,2.707735,100,15,7,12,13,112
4.087025,2.601248,100,15,7,13,14,116
4.102983,-0.359182,100,16,8,1,2,120
2.516864,-0.361807,100,16,8,2,3,124
2.231315,-0.389092,100,16,8,3,4,128
1.926939,-0.303331,100,16,8,4,5,132
2.55839,-0.381573,100,16,8,5,6,136
4.085946,-0.404057,100,16,8,6,7,140
4.077535,2.692183,100,16,8,9,10,144
2.363037,2.688965,100,16,8,10,11,148
2.040411,2.714783,100,16,8,11,12,152
1.945657,2.66936,100,16,8,12,13,156
2.424649,2.554451,100,16,8,13,14,160
3.892416,2.693165,100,16,8,14,15,164
4.053271,-0.369254,100,1,9,2,3,168
2.651552,-0.38474,100,1,9,3,4,172
1.927708,-0.303202,100,1,9,4,5,176
2.232278,-0.389062,100,1,9,5,6,180
2.602024,-0.400996,100,1,9,6,7,184
4.223769,-0.417314,100,1,9,7,8,188
3.801432,2.693775,100,1,9,10,11,192
2.456809,2.688155,100,1,9,11,12,196
1.946496,2.669389,100,1,9,12,13,200
2.047457,2.578597,100,1,9,13,14,204
2.549232,2.687437,100,1,9,14,15,208
4.130943,2.725378,100,1,9,15,16,212
4.229581,-0.395564,100,2,10,3,4,216
2.374774,-0.374609,100,2,10,4,5,220
2.232127,-0.389194,100,2,10,5,6,224
2.190365,-0.366351,100,2,10,6,7,228
2.558983,-0.381608,100,2,10,7,8,232
3.994573,-0.402614,100,2,10,8,9,236
4.078612,2.692048,100,2,10,11,12,240
2.411248,2.707767,100,2,10,12,13,244
1.997287,2.59967,100,2,10,13,14,248
2.038845,2.669225,100,2,10,14,15,252
2.456319,2.688091,100,2,10,15,16,0
3.961218,2.774647,100,3,11,1,2,4
3.860042,-0.388197,100,3,11,4,5,8
2.70218,-0.369254,100,3,11,5,6,12
2.232127,-0.389194,100,3,11,6,7,16
2.232127,-0.389194,100,3,11,7,8,20
2.491455,-0.303997,100,3,11,8,9,24
4.315892,-0.418524,100,3,11,9,10,28
3.848774,2.705486,100,3,11,12,13,32
2.416826,2.592585,100,3,11,13,14,36
1.993245,2.646005,100,3,11,14,15,40
2.085905,2.647039,100,3,11,15,16,44
2.416103,2.746032,100,4,12,1,2,48
3.994304,2.738847,100,4,12,2,3,52
4.505517,-0.400392,100,4,12,5,6,56
2.793553,-0.372764,100,4,12,6,7,60
2.281867,-0.370744,100,4,12,7,8,64
2.163013,-0.300142,100,4,12,8,9,68
2.641111,-0.45489,100,4,12,9,10,72
3.940217,-0.437053,100,4,12,10,11,76
4.1441,2.568479,100,4,12,13,14,80
2.363113,2.688865,100,4,12,14,15,84
1.992783,2.646041,100,4,12,15,16,88
1.99755,2.738912,100,5,13,1,2,92
2.503935,2.706245,100,5,13,2,3,96
4.408145,2.721808,100,5,13,3,4,100
4.196029,-0.361711,100,5,13,6,7,104
2.651373,-0.384872,100,5,13,7,8,108
2.071997,-0.292447,100,5,13,8,9,112
2.225903,-0.430758,100,5,13,9,10,116
2.459488,-0.415757,100,5,13,10,11,120
4.033216,-0.437831,100,5,13,11,12,124
3.846158,2.681372,100,5,13,14,15,128
2.456074,2.650327,100,5,13,15,16,132
2.040884,2.714748,100,6,14,1,2,136
2.04122,2.714581,100,6,14,2,3,140
2.559066,2.759885,100,6,14,3,4,144
3.674878,2.757701,100,6,14,4,5,148
4.087157,-0.404291,100,6,14,7,8,152
2.437893,-0.319719,100,6,14,8,9,156
2.231904,-0.389227,100,6,14,9,10,160
2.040884,-0.426845,100,6,14,10,11,164
2.552345,-0.417876,100,6,14,11,12,168
3.902521,-0.400928,100,6,14,12,13,172
4.07769,2.669225,100,6,14,15,16,176
2.312419,2.708434,100,7,15,1,2,180
2.035742,2.714042,100,7,15,2,3,184
2.084063,2.735123,100,7,15,3,4,188
2.178812,2.732452,100,7,15,4,5,192
3.854253,2.72939,100,7,15,5,6,196
3.962404,-0.366849,100,7,15,8,9,200
2.645764,-0.419788,100,7,15,9,10,204
2.090504,-0.405803,100,7,15,10,11,208
2.183231,-0.408595,100,7,15,11,12,212
2.467525,-0.37821,100,7,15,12,13,216
4.289433,-0.580542,100,7,15,13,14,220
3.842254,2.728822,100,8,16,1,2,224
2.404215,2.706933,100,8,16,2,3,228
2.038713,2.714293,100,8,16,3,4,232
1.822313,2.796799,100,8,16,4,5,236
2.367764,2.728045,100,8,16,5,6,240
3.903162,2.740497,100,8,16,6,7,244
4.372038,-0.387534,100,8,16,9,10,248
2.467112,-0.378374,100,8,16,10,11,252
2.182507,-0.408592,100,8,16,11,12,0
2.098224,-0.361678,100,8,16,12,13,4
2.545016,-0.655446,100,8,16,13,14,8
4.081901,-0.426945,100,8,16,14,15,12
3.985964,2.692576,100,9,1,2,3,16
2.503766,2.706113,100,9,1,3,4,20
1.770373,2.774069,100,9,1,4,5,24
2.038642,2.669193,100,9,1,5,6,28
2.411085,2.707635,100,9,1,6,7,32
4.094097,2.759852,100,9,1,7,8,36
3.901868,-0.401093,100,9,1,10,11,40
2.558556,-0.381773,100,9,1,11,12,44
2.109839,-0.318114,100,9,1,12,13,48
2.241057,-0.596787,100,9,1,13,14,52
2.59603,-0.436733,100,9,1,14,15,56
4.173931,-0.427885,100,9,1,15,16,60
3.983438,2.669427,100,10,2,3,4,64
2.225315,2.71097,100,10,2,4,5,68
2.038104,2.669327,100,10,2,5,6,72
2.084939,2.691546,100,10,2,6,7,76
2.508243,2.743167,100,10,2,7,8,80
3.786525,2.804204,100,10,2,8,9,84
4.178237,-0.405797,100,10,2,11,12,88
2.528691,-0.325287,100,10,2,12,13,92
2.240761,-0.59672,100,10,2,13,14,96
2.231165,-0.389224,100,10,2,14,15,100
2.64401,-0.419782,100,10,2,15,16,104
4.308628,-0.46158,100,11,3,1,2,108
3.70766,2.694287,100,11,3,4,5,112
2.501969,2.669193,100,11,3,5,6,116
2.178133,2.690466,100,11,3,6,7,120
2.133321,2.712643,100,11,3,7,8,124
2.345794,2.827915,100,11,3,8,9,128
4.08621,2.737336,100,11,3,9,10,132
3.959905,-0.366943,100,11,3,12,13,136
2.609225,-0.579168,100,11,3,13,14,140
2.181784,-0.408589,100,11,3,14,15,144
2.270479,-0.451927,100,11,3,15,16,148
2.60004,-0.401022,100,12,4,1,2,152
4.128205,-0.416209,100,12,4,2,3,156
4.26064,2.669263,100,12,4,5,6,160
2.595086,2.704962,100,12,4,6,7,164
2.132332,2.712714,100,12,4,7,8,168
1.980109,2.857385,100,12,4,8,9,172
2.458752,2.725739,100,12,4,9,10,176
3.802165,2.717905,100,12,4,10,11,180
4.079734,-0.517853,100,12,4,13,14,184
2.557708,-0.38177,100,12,4,14,15,188
2.269799,-0.452024,100,12,4,15,16,192
2.189061,-0.366213,100,13,5,1,2,196
2.643576,-0.419615,100,13,5,2,3,200
4.498609,-0.420797,100,13,5,3,4,204
4.080009,2.714718,100,13,5,6,7,208
2.502774,2.706315,100,13,5,7,8,212
1.92643,2.838396,100,13,5,8,9,216
2.130532,2.669295,100,13,5,9,10,220
2.315796,2.669295,100,13,5,10,11,224
3.943658,2.728051,100,13,5,11,12,228
4.09274,-0.381737,100,13,5,14,15,232
2.600383,-0.40109,100,13,5,15,16,236
2.18441,-0.367121,100,14,6,1,2,240
2.189639,-0.366348,100,14,6,2,3,244
2.693597,-0.403444,100,14,6,3,4,248
3.759601,-0.410682,100,14,6,4,5,252
3.985298,2.692412,100,14,6,7,8,0
2.293052,2.811157,100,14,6,8,9,4
2.085214,2.647041,100,14,6,9,10,8
1.899958,2.693645,100,14,6,10,11,12
2.323501,2.749058,100,14,6,11,12,16
3.851699,2.729396,100,14,6,12,13,20
4.04304,-0.392078,100,14,6,15,16,24
2.558901,-0.381508,100,15,7,1,2,28
2.097738,-0.361643,100,15,7,2,3,32
2.189999,-0.366516,100,15,7,3,4,36
2.323965,-0.39247,100,15,7,4,5,40
4.038005,-0.41496,100,15,7,5,6,44
3.848007,2.705421,100,15,7,8,9,48
2.455994,2.688158,100,15,7,9,10,52
1.900147,2.693678,100,15,7,10,11,56
1.997287,2.738979,100,15,7,11,12,60
2.318416,2.709271,100,15,7,12,13,64
4.093965,2.578632,100,15,7,13,14,68
4.218016,-0.439378,100,16,8,1,2,72
2.558383,-0.381905,100,16,8,2,3,76
2.189421,-0.366381,100,16,8,3,4,80
1.926939,-0.303331,100,16,8,4,5,84
2.55839,-0.381573,100,16,8,5,6,88
3.950968,-0.390065,100,16,8,6,7,92
4.077666,2.692083,100,16,8,9,10,96
2.316258,2.66936,100,16,8,10,11,100
1.947861,2.716943,100,16,8,11,12,104
1.947861,2.716943,100,16,8,12,13,108
2.635068,2.492519,100,16,8,13,14,112
3.944572,2.728016,100,16,8,14,15,116
4.044784,-0.392049,100,1,9,2,3,120
2.601765,-0.401028,100,1,9,3,4,124
1.966321,-0.330406,100,1,9,4,5,128
2.182725,-0.40856,100,1,9,5,6,132
2.559577,-0.381643,100,1,9,6,7,136
4.223905,-0.417413,100,1,9,7,8,140
3.800424,2.669289,100,1,9,10,11,144
2.31911,2.709368,100,1,9,11,12,148
1.948764,2.716873,100,1,9,12,13,152
2.16373,2.497066,100,1,9,13,14,156
2.409785,2.669257,100,1,9,14,15,160
4.038408,2.726665,100,1,9,15,16,164
4.27266,-0.40731,100,2,10,3,4,168
2.425773,-0.357459,100,2,10,4,5,172
2.232127,-0.389194,100,2,10,5,6,176
2.190294,-0.366251,100,2,10,6,7,180
2.596464,-0.436569,100,2,10,7,8,184
3.902521,-0.400928,100,2,10,8,9,188
4.031489,2.680818,100,2,10,11,12,192
2.363821,2.688962,100,2,10,12,13,196
2.181523,2.455196,100,2,10,13,14,200
2.038779,2.669325,100,2,10,14,15,204
2.456319,2.688091,100,2,10,15,16,208
4.26461,2.690893,100,3,11,1,2,212
3.859657,-0.38823,100,3,11,4,5,216
2.651638,-0.38484,100,3,11,5,6,220
2.28255,-0.370647,100,3,11,6,7,224
2.182507,-0.408592,100,3,11,7,8,228
2.477456,-0.34102,100,3,11,8,9,232
4.174898,-0.42792,100,3,11,9,10,236
3.848774,2.705486,100,3,11,12,13,240
2.599287,2.471862,100,3,11,13,14,244
1.993245,2.646005,100,3,11,14,15,248
2.039049,2.669257,100,3,11,15,16,252
2.50172,2.66916,100,4,12,1,2,0
3.858887,2.753298,100,4,12,2,3,4
4.555261,-0.39098,100,4,12,5,6,8
2.701372,-0.369351,100,4,12,6,7,12
2.231387,-0.389191,100,4,12,7,8,16
2.109839,-0.318114,100,4,12,8,9,20
2.600986,-0.401125,100,4,12,9,10,24
3.895848,-0.42475,100,4,12,10,11,28
4.114885,2.533765,100,4,12,13,14,32
2.410767,2.630817,100,4,12,14,15,36
2.038373,2.66926,100,4,12,15,16,40
2.089811,2.735793,100,5,13,1,2,44
2.509074,2.743164,100,5,13,2,3,48
4.457069,2.731644,100,5,13,3,4,52
4.196029,-0.361711,100,5,13,6,7,56
2.601246,-0.401093,100,5,13,7,8,60
2.072064,-0.292547,100,5,13,8,9,64
2.189857,-0.366316,100,5,13,9,10,68
2.459488,-0.415757,100,5,13,10,11,72
4.173931,-0.427885,100,5,13,11,12,76
3.984489,2.669292,100,5,13,14,15,80
2.409304,2.669193,100,5,13,15,16,84
2.089811,2.735793,100,6,14,1,2,88
1.997416,2.73878,100,6,14,2,3,92
2.552345,2.723716,100,6,14,3,4,96
3.624994,2.745997,100,6,14,4,5,100
4.087157,-0.404291,100,6,14,7,8,104
2.437893,-0.319719,100,6,14,8,9,108
2.149575,-0.342665,100,6,14,9,10,112
2.040884,-0.426845,100,6,14,10,11,116
2.596464,-0.436569,100,6,14,11,12,120
3.945359,-0.413512,100,6,14,12,13,124
3.986093,2.692476,100,6,14,15,16,128
2.497208,2.631335,100,7,15,1,2,132
1.992254,2.738273,100,7,15,2,3,136
2.041687,2.759115,100,7,15,3,4,140
2.227088,2.751558,100,7,15,4,5,144
3.946795,2.727978,100,7,15,5,6,148
4.003548,-0.379614,100,7,15,8,9,152
2.56017,-0.381679,100,7,15,9,10,156
2.090504,-0.405803,100,7,15,10,11,160
2.17929,-0.451065,100,7,15,11,12,164
2.509907,-0.398432,100,7,15,12,13,168
4.340716,-0.590004,100,7,15,13,14,172
4.207253,2.635699,100,8,16,1,2,176
2.360546,2.727278,100,8,16,2,3,180
1.993572,2.738267,100,8,16,3,4,184
1.822131,2.796767,100,8,16,4,5,188
2.411807,2.707732,100,8,16,5,6,192
3.828704,2.790542,100,8,16,6,7,196
4.229718,-0.395663,100,8,16,9,10,200
2.467112,-0.378374,100,8,16,10,11,204
2.226347,-0.430693,100,8,16,11,12,208
2.057919,-0.336808,100,8,16,12,13,212
2.744762,-0.676354,100,8,16,13,14,216
3.989722,-0.425857,100,8,16,14,15,220
3.892215,2.669325,100,9,1,2,3,224
2.456074,2.688058,100,9,1,3,4,228
1.862554,2.768861,100,9,1,4,5,232
2.038642,2.669193,100,9,1,5,6,236
2.558811,2.759852,100,9,1,6,7,240
4.043574,2.749447,100,9,1,7,8,244
3.859272,-0.388262,100,9,1,10,11,248
2.644359,-0.419849,100,9,1,11,12,252
2.109839,-0.318114,100,9,1,12,13,0
2.271424,-0.677728,100,9,1,13,14,4
2.558473,-0.381673,100,9,1,14,15,8
4.266078,-0.428882,100,9,1,15,16,12
4.076207,2.669327,100,10,2,3,4,16
2.225315,2.71097,100,10,2,4,5,20
2.038104,2.669327,100,10,2,5,6,24
2.085006,2.691446,100,10,2,6,7,28
2.415862,2.746,100,10,2,7,8,32
3.786525,2.804204,100,10,2,8,9,36
4.227758,-0.395593,100,10,2,11,12,40
2.516783,-0.361708,100,10,2,12,13,44
2.307749,-0.654014,100,10,2,13,14,48
2.231092,-0.389124,100,10,2,14,15,52
2.688188,-0.437796,100,10,2,15,16,56
4.123199,-0.483468,100,11,3,1,2,60
3.662809,2.707249,100,11,3,4,5,64
2.501889,2.669292,100,11,3,5,6,68
2.133321,2.712643,100,11,3,6,7,72
2.089535,2.73586,100,11,3,7,8,76
2.345794,2.827915,100,11,3,8,9,80
4.086618,2.737369,100,11,3,9,10,84
3.970602,-0.343636,100,11,3,12,13,88
2.635331,-0.649042,100,11,3,13,14,92
2.225609,-0.43069,100,11,3,14,15,96
2.270479,-0.451927,100,11,3,15,16,100
2.550908,-0.526821,100,12,4,1,2,104
4.085264,-0.404221,100,12,4,2,3,108
4.353262,2.669263,100,12,4,5,6,112
2.595086,2.704962,100,12,4,6,7,116
2.039801,2.714686,100,12,4,7,8,120
2.0176,2.830638,100,12,4,8,9,124
2.458428,2.725806,100,12,4,9,10,128
3.661348,2.70712,100,12,4,10,11,132
4.319273,-0.547557,100,12,4,13,14,136
2.60004,-0.401022,100,12,4,14,15,140
2.177124,-0.451056,100,12,4,15,16,144
2.181208,-0.535941,100,13,5,1,2,148
2.692617,-0.403341,100,13,5,2,3,152
4.450486,-0.430523,100,13,5,3,4,156
4.03175,2.703864,100,13,5,6,7,160
2.455181,2.688161,100,13,5,7,8,164
1.92643,2.838396,100,13,5,8,9,168
1.996426,2.73895,100,13,5,9,10,172
2.27373,2.730443,100,13,5,10,11,176
3.95018,2.751463,100,13,5,11,12,180
4.085395,-0.404321,100,13,5,14,15,184
2.643661,-0.419714,100,13,5,15,16,188
2.134384,-0.55978,100,14,6,1,2,192
2.231538,-0.389059,100,14,6,2,3,196
2.69351,-0.403344,100,14,6,3,4,200
3.759976,-0.41065,100,14,6,4,5,204
3.938165,2.680924,100,14,6,7,8,208
2.293052,2.811157,100,14,6,8,9,212
1.996888,2.738915,100,14,6,9,10,216
1.853066,2.66926,100,14,6,10,11,220
2.362878,2.688833,100,14,6,11,12,224
3.808561,2.742268,100,14,6,12,13,228
4.085803,-0.404288,100,14,6,15,16,232
2.503773,-0.509188,100,15,7,1,2,236
2.139281,-0.385562,100,15,7,2,3,240
2.231754,-0.389359,100,15,7,3,4,244
2.282249,-0.370579,100,15,7,4,5,248
4.038005,-0.41496,100,15,7,5,6,252
3.848391,2.705453,100,15,7,8,9,0
2.45616,2.68829,100,15,7,9,10,4
1.853436,2.669325,100,15,7,10,11,8
1.992982,2.692576,100,15,7,11,12,12
2.323965,2.749122,100,15,7,12,13,16
4.011336,2.553533,100,15,7,13,14,20
4.170428,-0.450114,100,16,8,1,2,24
2.516945,-0.361907,100,16,8,2,3,28
2.189639,-0.366348,100,16,8,3,4,32
1.873858,-0.323542,100,16,8,4,5,36
2.508412,-0.398294,100,16,8,5,6,40
4.093292,-0.381473,100,16,8,6,7,44
4.036939,2.726768,100,16,8,9,10,48
2.270405,2.689765,100,16,8,10,11,52
1.99252,2.692611,100,16,8,11,12,56
1.95446,2.764311,100,16,8,12,13,60
2.472299,2.442461,100,16,8,13,14,64
3.895848,2.716843,100,16,8,14,15,68
4.137177,-0.393845,100,1,9,2,3,72
2.610006,-0.3656,100,1,9,3,4,76
1.927454,-0.303135,100,1,9,4,5,80
2.23235,-0.389162,100,1,9,5,6,84
2.651903,-0.384808,100,1,9,6,7,88
4.272949,-0.407178,100,1,9,7,8,92
3.615038,2.669289,100,1,9,10,11,96
2.363897,2.688862,100,1,9,11,12,100
1.905102,2.742298,100,1,9,12,13,104
2.113521,2.403005,100,1,9,13,14,108
2.460058,2.725801,100,1,9,14,15,112
3.952534,2.751325,100,1,9,15,16,116
4.27266,-0.40731,100,2,10,3,4,120
2.333724,-0.352907,100,2,10,4,5,124
2.232127,-0.389194,100,2,10,5,6,128
2.190146,-0.366383,100,2,10,6,7,132
2.601505,-0.40106,100,2,10,7,8,136
3.909827,-0.377316,100,2,10,8,9,140
3.938824,2.681089,100,2,10,11,12,144
2.367216,2.72808,100,2,10,12,13,148
2.05667,2.418782,100,2,10,13,14,152
2.038845,2.669225,100,2,10,14,15,156
2.411326,2.707667,100,2,10,15,16,160
4.078229,2.669157,100,3,11,1,2,164
3.817706,-0.375115,100,3,11,4,5,168
2.743891,-0.387692,100,3,11,5,6,172
2.241728,-0.347981,100,3,11,6,7,176
2.275011,-0.411187,100,3,11,7,8,180
2.477456,-0.34102,100,3,11,8,9,184
4.155822,-0.349364,100,3,11,9,10,188
3.801175,2.693643,100,3,11,12,13,192
2.473118,2.442458,100,3,11,13,14,196
1.993245,2.646005,100,3,11,14,15,200
2.039049,2.669257,100,3,11,15,16,204
2.503435,2.63214,100,4,12,1,2,208
3.901479,2.740468,100,4,12,2,3,212
4.555261,-0.39098,100,4,12,5,6,216
2.726678,-0.301697,100,4,12,6,7,220
2.27433,-0.411284,100,4,12,7,8,224
2.110049,-0.318081,100,4,12,8,9,228
2.644274,-0.41975,100,4,12,9,10,232
3.944572,-0.413577,100,4,12,10,11,236
4.114474,2.533732,100,4,12,13,14,240
2.363349,2.649687,100,4,12,14,15,244
2.038373,2.66926,100,4,12,15,16,248
2.139563,2.582486,100,5,13,1,2,252
2.552345,2.723716,100,5,13,2,3,0
4.364579,2.732968,100,5,13,3,4,4
4.115018,-0.336872,100,5,13,6,7,8
2.601505,-0.40106,100,5,13,7,8,12
2.072064,-0.292547,100,5,13,8,9,16
2.226053,-0.430626,100,5,13,9,10,20
2.416344,-0.395528,100,5,13,10,11,24
4.081362,-0.426877,100,5,13,11,12,28
3.845775,2.657245,100,5,13,14,15,32
2.456074,2.688058,100,5,13,15,16,36
2.190365,2.563273,100,6,14,1,2,40
2.04122,2.714581,100,6,14,2,3,44
2.596548,2.704924,100,6,14,3,4,48
3.667978,2.732432,100,6,14,4,5,52
4.094506,-0.381708,100,6,14,7,8,56
2.453695,-0.28238,100,6,14,8,9,60
2.182289,-0.408625,100,6,14,9,10,64
2.047457,-0.381676,100,6,14,10,11,68
2.503935,-0.435348,100,6,14,11,12,72
4.044381,-0.392081,100,6,14,12,13,76
3.893444,2.69303,100,6,14,15,16,80
2.502334,2.594416,100,7,15,1,2,84
2.033642,2.668619,100,7,15,2,3,88
2.084063,2.735123,100,7,15,3,4,92
2.228419,2.751751,100,7,15,4,5,96
3.898044,2.716805,100,7,15,5,6,100
4.003947,-0.379582,100,7,15,8,9,104
2.602628,-0.401031,100,7,15,9,10,108
2.048136,-0.381679,100,7,15,10,11,112
2.134454,-0.428888,100,7,15,11,12,116
2.559832,-0.381611,100,7,15,12,13,120
4.300438,-0.601973,100,7,15,13,14,124
4.022525,2.634185,100,8,16,1,2,128
2.404215,2.706933,100,8,16,2,3,132
2.086065,2.735213,100,8,16,3,4,136
1.862926,2.768926,100,8,16,4,5,140
2.411885,2.707632,100,8,16,5,6,144
3.91047,2.764109,100,8,16,6,7,148
4.168475,-0.327493,100,8,16,9,10,152
2.467112,-0.378374,100,8,16,10,11,156
2.178568,-0.451062,100,8,16,11,12,160
2.139777,-0.385597,100,8,16,12,13,164
2.713284,-0.609402,100,8,16,13,14,168
4.087565,-0.404259,100,8,16,14,15,172
3.848391,2.705453,100,9,1,2,3,176
2.548723,2.687372,100,9,1,3,4,180
1.862554,2.768861,100,9,1,4,5,184
2.038642,2.669193,100,9,1,5,6,188
2.508824,2.743132,100,9,1,6,7,192
4.043978,2.749479,100,9,1,7,8,196
3.909563,-0.377448,100,9,1,10,11,200
2.551836,-0.417941,100,9,1,11,12,204
2.149361,-0.342698,100,9,1,12,13,208
2.399243,-0.647105,100,9,1,13,14,212
2.558728,-0.38164,100,9,1,14,15,216
4.266504,-0.428849,100,9,1,15,16,220
4.122788,2.680563,100,10,2,3,4,224
2.317879,2.709306,100,10,2,4,5,228
2.085006,2.647009,100,10,2,5,6,232
2.057032,2.804755,100,10,2,6,7,236
2.508243,2.743167,100,10,2,7,8,240
3.775296,2.779785,100,10,2,8,9,244
4.227894,-0.395693,100,10,2,11,12,248
2.568263,-0.345773,100,10,2,12,13,252
2.398927,-0.647037,100,10,2,13,14,0
2.148863,-0.342662,100,10,2,14,15,4
2.640762,-0.454823,100,10,2,15,16,8
4.308918,-0.482953,100,11,3,1,2,12
3.70803,2.694319,100,11,3,4,5,16
2.548723,2.651013,100,11,3,5,6,20
2.097805,2.77985,100,11,3,6,7,24
2.133252,2.712743,100,11,3,7,8,28
2.38481,2.805663,100,11,3,8,9,32
4.051927,2.772342,100,11,3,9,10,36
4.011065,-0.356673,100,11,3,12,13,40
2.76489,-0.623708,100,11,3,13,14,44
2.149077,-0.34263,100,11,3,14,15,48
2.225609,-0.43069,100,11,3,15,16,52
2.784936,-0.538998,100,12,4,1,2,56
3.992851,-0.402643,100,12,4,2,3,60
4.399817,2.679789,100,12,4,5,6,64
2.5162,2.77992,100,12,4,6,7,68
2.132401,2.712614,100,12,4,7,8,72
2.004803,2.785022,100,12,4,8,9,76
2.516281,2.77982,100,12,4,9,10,80
3.807802,2.742204,100,12,4,10,11,84
4.319273,-0.547557,100,12,4,13,14,88
2.516281,-0.361772,100,12,4,14,15,92
2.224871,-0.430687,100,12,4,15,16,96
2.415706,-0.548937,100,13,5,1,2,100
2.600216,-0.40089,100,13,5,2,3,104
4.450486,-0.430523,100,13,5,3,4,108
3.950574,2.751495,100,13,5,6,7,112
2.410208,2.707738,100,13,5,7,8,116
1.965018,2.811192,100,13,5,8,9,120
1.996426,2.73895,100,13,5,9,10,124
2.273803,2.730344,100,13,5,10,11,128
3.900575,2.740503,100,13,5,11,12,132
4.000495,-0.379641,100,13,5,14,15,136
2.643747,-0.419814,100,13,5,15,16,140
2.362267,-0.531701,100,14,6,1,2,144
2.181784,-0.408589,100,14,6,2,3,148
2.644538,-0.419717,100,14,6,3,4,152
3.716661,-0.397573,100,14,6,4,5,156
3.940344,2.70444,100,14,6,7,8,160
2.332951,2.788689,100,14,6,8,9,164
1.996888,2.738915,100,14,6,9,10,168
1.899958,2.693645,100,14,6,10,11,172
2.45575,2.688126,100,14,6,11,12,176
3.724245,2.768896,100,14,6,12,13,180
4.085803,-0.404288,100,14,6,15,16,184
2.786235,-0.538737,100,15,7,1,2,188
2.182001,-0.408557,100,15,7,2,3,192
2.231754,-0.389359,100,15,7,3,4,196
2.282249,-0.370579,100,15,7,4,5,200
3.989324,-0.42589,100,15,7,5,6,204
3.803682,2.718034,100,15,7,8,9,208
2.416507,2.746196,100,15,7,9,10,212
1.900147,2.693678,100,15,7,10,11,216
2.085422,2.647074,100,15,7,11,12,220
2.323965,2.749122,100,15,7,12,13,224
3.951617,2.587025,100,15,7,13,14,228
4.263059,-0.450597,100,16,8,1,2,232
2.558383,-0.381905,100,16,8,2,3,236
2.231387,-0.389191,100,16,8,3,4,240
1.913526,-0.35108,100,16,8,4,5,244
2.551671,-0.417741,100,16,8,5,6,248
4.010806,-0.356474,100,16,8,6,7,252
4.080823,2.714783,100,16,8,9,10,0
2.316258,2.66936,100,16,8,10,11,4
2.085147,2.647141,100,16,8,11,12,8
1.947924,2.716843,100,16,8,12,13,12
2.476635,2.537945,100,16,8,13,14,16
3.816821,2.766513,100,16,8,14,15,20
4.053402,-0.369354,100,1,9,2,3,24
2.610006,-0.3656,100,1,9,3,4,28
1.914099,-0.350984,100,1,9,4,5,32
2.182725,-0.40856,100,1,9,5,6,36
2.661605,-0.350108,100,1,9,6,7,40
4.180039,-0.405767,100,1,9,7,8,44
3.801554,2.693675,100,1,9,10,11,48
2.456564,2.688123,100,1,9,11,12,52
1.948764,2.716873,100,1,9,12,13,56
2.11047,2.514938,100,1,9,13,14,60
2.367528,2.728013,100,1,9,14,15,64
3.94588,2.728013,100,1,9,15,16,68
4.180039,-0.405767,100,2,10,3,4,72
2.293813,-0.330438,100,2,10,4,5,76
2.232127,-0.389194,100,2,10,5,6,80
2.149506,-0.342566,100,2,10,6,7,84
2.601505,-0.40106,100,2,10,7,8,88
3.859532,-0.38813,100,2,10,8,9,92
4.078612,2.692048,100,2,10,11,12,96
2.367292,2.727981,100,2,10,12,13,100
2.126477,2.471829,100,2,10,13,14,104
1.997351,2.738879,100,2,10,14,15,108
2.456319,2.688091,100,2,10,15,16,112
4.034151,2.703726,100,3,11,1,2,116
3.767318,-0.386162,100,3,11,4,5,120
2.70218,-0.369254,100,3,11,5,6,124
2.217648,-0.283137,100,3,11,6,7,128
2.232127,-0.389194,100,3,11,7,8,132
2.517869,-0.361678,100,3,11,8,9,136
4.094914,-0.381676,100,3,11,9,10,140
3.711992,2.719216,100,3,11,12,13,144
2.508469,2.464615,100,3,11,13,14,148
2.041154,2.71468,100,3,11,14,15,152
2.039049,2.669257,100,3,11,15,16,156
2.548469,2.65098,100,4,12,1,2,160
3.993905,2.738815,100,4,12,2,3,164
4.505517,-0.400392,100,4,12,5,6,168
2.673419,-0.315831,100,4,12,6,7,172
2.27433,-0.411284,100,4,12,7,8,176
2.109771,-0.318014,100,4,12,8,9,180
2.528943,-0.325254,100,4,12,9,10,184
3.901353,-0.401025,100,4,12,10,11,188
3.983553,2.517495,100,4,12,13,14,192
2.363113,2.688865,100,4,12,14,15,196
2.038438,2.66916,100,4,12,15,16,200
2.178421,2.647852,100,5,13,1,2,204
2.552427,2.723617,100,5,13,2,3,208
4.413986,2.742776,100,5,13,3,4,212
4.115018,-0.336872,100,5,13,6,7,216
2.558811,-0.38174,100,5,13,7,8,220
2.110049,-0.318081,100,5,13,8,9,224
2.163299,-0.300209,100,5,13,9,10,228
2.459567,-0.415857,100,5,13,10,11,232
3.989195,-0.42579,100,5,13,11,12,236
3.938431,2.681056,100,5,13,14,15,240
2.409226,2.669292,100,5,13,15,16,244
2.17835,2.647951,100,6,14,1,2,248
2.085973,2.691376,100,6,14,2,3,252
2.596548,2.704924,100,6,14,3,4,0
3.72548,2.768893,100,6,14,4,5,4
4.052866,-0.369286,100,6,14,7,8,8
2.437893,-0.319719,100,6,14,8,9,12
2.126477,-0.274972,100,6,14,9,10,16
2.089811,-0.4058,100,6,14,10,11,20
2.456319,-0.453502,100,6,14,11,12,24
3.960695,-0.366879,100,6,14,12,13,28
3.893444,2.69303,100,6,14,15,16,32
2.58983,2.632688,100,7,15,1,2,36
1.98796,2.69187,100,7,15,2,3,40
2.07996,2.690773,100,7,15,3,4,44
2.17975,2.732481,100,7,15,4,5,48
3.942044,2.704469,100,7,15,5,6,52
4.045722,-0.392084,100,7,15,8,9,56
2.545606,-0.28926,100,7,15,9,10,60
2.090504,-0.405803,100,7,15,10,11,64
2.086389,-0.450152,100,7,15,11,12,68
2.417705,-0.395567,100,7,15,12,13,72
4.238543,-0.570851,100,7,15,13,14,76
3.930164,2.633374,100,8,16,1,2,80
2.402439,2.66849,100,8,16,2,3,84
2.037495,2.7141,100,8,16,3,4,88
1.812678,2.746029,100,8,16,4,5,92
2.411885,2.707632,100,8,16,5,6,96
3.946401,2.727945,100,8,16,6,7,100
4.15609,-0.349563,100,8,16,9,10,104
2.467112,-0.378374,100,8,16,10,11,108
2.133747,-0.428885,100,8,16,11,12,112
2.139777,-0.385597,100,8,16,12,13,116
2.645151,-0.524919,100,8,16,13,14,120
4.044381,-0.392081,100,8,16,14,15,124
3.985964,2.692576,100,9,1,2,3,128
2.50205,2.669093,100,9,1,3,4,132
1.855686,2.719051,100,9,1,4,5,136
2.038642,2.669193,100,9,1,5,6,140
2.416422,2.745964,100,9,1,6,7,144
4.086342,2.737237,100,9,1,7,8,148
3.867776,-0.364421,100,9,1,10,11,152
2.551836,-0.417941,100,9,1,11,12,156
2.097596,-0.361775,100,9,1,12,13,160
2.177916,-0.493706,100,9,1,13,14,164
2.558556,-0.381773,100,9,1,14,15,168
4.266078,-0.428882,100,9,1,15,16,172
4.123199,2.680595,100,10,2,3,4,176
2.270179,2.689733,100,10,2,4,5,180
2.085006,2.647009,100,10,2,5,6,184
1.996689,2.738882,100,10,2,6,7,188
2.458998,2.725771,100,10,2,7,8,192
3.775175,2.779885,100,10,2,8,9,196
4.135526,-0.393975,100,10,2,11,12,200
2.476388,-0.34105,100,10,2,12,13,204
2.225387,-0.514008,100,10,2,13,14,208
2.189421,-0.366381,100,10,2,14,15,212
2.688275,-0.437896,100,10,2,15,16,216
4.216685,-0.483157,100,11,3,1,2,220
3.804061,2.718066,100,11,3,4,5,224
2.50205,2.669093,100,11,3,5,6,228
2.089603,2.735761,100,11,3,6,7,232
2.085489,2.691411,100,11,3,7,8,236
2.38481,2.805663,100,11,3,8,9,240
4.093557,2.75992,100,11,3,9,10,244
3.983682,-0.320667,100,11,3,12,13,248
2.600986,-0.54374,100,11,3,13,14,252
2.109771,-0.318014,100,11,3,14,15,0
2.225609,-0.43069,100,11,3,15,16,4
2.557708,-0.38177,100,12,4,1,2,8
4.035732,-0.414922,100,12,4,2,3,12
4.353403,2.669163,100,12,4,5,6,16
2.60004,2.74057,100,12,4,6,7,20
2.130389,2.669163,100,12,4,7,8,24
2.004868,2.784922,100,12,4,8,9,28
2.424244,2.78404,100,12,4,9,10,32
3.666031,2.73237,100,12,4,10,11,36
4.327211,-0.568903,100,12,4,13,14,40
2.475894,-0.341114,100,12,4,14,15,44
2.224943,-0.430787,100,12,4,15,16,48
2.189132,-0.366313,100,13,5,1,2,52
2.608452,-0.365462,100,13,5,2,3,56
4.450186,-0.430655,100,13,5,3,4,60
4.135259,2.747818,100,13,5,6,7,64
2.455181,2.688161,100,13,5,7,8,68
1.954071,2.764247,100,13,5,8,9,72
1.92643,2.838396,100,13,5,9,10,76
2.273803,2.730344,100,13,5,10,11,80
3.943786,2.727951,100,13,5,11,12,84
4.000495,-0.379641,100,13,5,14,15,88
2.643747,-0.419814,100,13,5,15,16,92
2.135022,-0.386207,100,14,6,1,2,96
2.189568,-0.366249,100,14,6,2,3,100
2.644538,-0.419717,100,14,6,3,4,104
3.667247,-0.409226,100,14,6,4,5,108
3.985298,2.692412,100,14,6,7,8,112
2.333026,2.788589,100,14,6,8,9,116
1.926877,2.838361,100,14,6,9,10,120
1.899958,2.693645,100,14,6,10,11,124
2.366507,2.727984,100,14,6,11,12,128
3.734602,2.793583,100,14,6,12,13,132
4.135526,-0.393975,100,14,6,15,16,136
2.558901,-0.381508,100,15,7,1,2,140
2.13935,-0.385662,100,15,7,2,3,144
2.182072,-0.408657,100,15,7,3,4,148
2.282095,-0.370711,100,15,7,4,5,152
4.033749,-0.437899,100,15,7,5,6,156
3.809321,2.742333,100,15,7,8,9,160
2.425133,2.784269,100,15,7,9,10,164
1.900147,2.693678,100,15,7,10,11,168
1.992783,2.692544,100,15,7,11,12,172
2.274483,2.73044,100,15,7,12,13,176
4.081494,2.623769,100,15,7,13,14,180
4.170428,-0.450114,100,16,8,1,2,184
2.516945,-0.361907,100,16,8,2,3,188
2.181784,-0.408589,100,16,8,3,4,192
1.913526,-0.35108,100,16,8,4,5,196
2.558473,-0.381673,100,16,8,5,6,200
4.086078,-0.404156,100,16,8,6,7,204
3.98827,2.715838,100,16,8,9,10,208
2.270405,2.689765,100,16,8,10,11,212
2.038373,2.66926,100,16,8,11,12,216
2.038169,2.669228,100,16,8,12,13,220
2.455505,2.688093,100,16,8,13,14,224
3.951096,2.751428,100,16,8,14,15,228
4.044915,-0.392148,100,1,9,2,3,232
2.601765,-0.401028,100,1,9,3,4,236
1.91429,-0.350951,100,1,9,4,5,240
2.182725,-0.40856,100,1,9,5,6,244
2.559577,-0.381643,100,1,9,6,7,248
4.267919,-0.428852,100,1,9,7,8,252
3.661678,2.681947,100,1,9,10,11,0
2.409785,2.669257,100,1,9,11,12,4
1.993245,2.692509,100,1,9,12,13,8
2.085905,2.647039,100,1,9,13,14,12
2.416904,2.746029,100,1,9,14,15,16
3.995101,2.738912,100,1,9,15,16,20
4.130943,-0.416215,100,2,10,3,4,24
2.293813,-0.330438,100,2,10,4,5,28
2.182289,-0.408625,100,2,10,5,6,32
2.190146,-0.366383,100,2,10,6,7,36
2.559066,-0.381708,100,2,10,7,8,40
3.902258,-0.40106,100,2,10,8,9,44
4.07915,2.69198,100,2,10,11,12,48
2.367292,2.727981,100,2,10,12,13,52
2.085697,2.647006,100,2,10,13,14,56
1.997351,2.738879,100,2,10,14,15,60
2.411326,2.707667,100,2,10,15,16,64
4.082308,2.71468,100,3,11,1,2,68
3.72548,-0.372699,100,3,11,4,5,72
2.694221,-0.403479,100,3,11,5,6,76
2.28255,-0.370647,100,3,11,6,7,80
2.190365,-0.366351,100,3,11,7,8,84
2.517869,-0.361678,100,3,11,8,9,88
4.145474,-0.371555,100,3,11,9,10,92
3.767694,2.755463,100,3,11,12,13,96
2.467032,2.575196,100,3,11,13,14,100
1.99755,2.738912,100,3,11,14,15,104
2.085905,2.691476,100,3,11,15,16,108
2.425047,2.784037,100,4,12,1,2,112
3.993905,2.738815,100,4,12,2,3,116
4.505517,-0.400392,100,4,12,5,6,120
2.752531,-0.35434,100,4,12,6,7,124
2.281867,-0.370744,100,4,12,7,8,128
2.149147,-0.34273,100,4,12,8,9,132
2.660457,-0.350137,100,4,12,9,10,136
3.944572,-0.413577,100,4,12,10,11,140
4.010936,2.553501,100,4,12,13,14,144
2.366743,2.728016,100,4,12,14,15,148
2.038373,2.66926,100,4,12,15,16,152
2.089879,2.735693,100,5,13,1,2,156
2.504016,2.706145,100,5,13,2,3,160
4.413986,2.742776,100,5,13,3,4,164
4.128559,-0.314631,100,5,13,6,7,168
2.558811,-0.38174,100,5,13,7,8,172
2.110049,-0.318081,100,5,13,8,9,176
2.189928,-0.366416,100,5,13,9,10,180
2.416422,-0.395628,100,5,13,10,11,184
4.033347,-0.437931,100,5,13,11,12,188
3.891953,2.669193,100,5,13,14,15,192
2.409304,2.669193,100,5,13,15,16,196
2.04095,2.714648,100,6,14,1,2,200
2.041154,2.71468,100,6,14,2,3,204
2.548978,2.687405,100,6,14,3,4,208
3.72548,2.768893,100,6,14,4,5,212
4.044381,-0.392081,100,6,14,7,8,216
2.477209,-0.341052,100,6,14,8,9,220
2.149575,-0.342665,100,6,14,9,10,224
2.005933,-0.356609,100,6,14,10,11,228
2.508993,-0.398329,100,6,14,11,12,232
3.879632,-0.340606,100,6,14,12,13,236
3.893444,2.69303,100,6,14,15,16,240
2.41041,2.745159,100,7,15,1,2,244
2.035742,2.714042,100,7,15,2,3,248
2.035402,2.713878,100,7,15,3,4,252
2.229085,2.751847,100,7,15,4,5,0
3.942438,2.704501,100,7,15,5,6,4
4.045722,-0.392084,100,7,15,8,9,8
2.610611,-0.365635,100,7,15,9,10,12
2.09871,-0.361714,100,7,15,10,11,16
2.140487,-0.3856,100,7,15,11,12,20
2.559915,-0.381711,100,7,15,12,13,24
4.220256,-0.505226,100,7,15,13,14,28
4.112812,2.679889,100,8,16,1,2,32
2.449319,2.687388,100,8,16,2,3,36
2.081751,2.690831,100,8,16,3,4,40
1.856181,2.719248,100,8,16,4,5,44
2.456809,2.688155,100,8,16,5,6,48
3.860552,2.753328,100,8,16,6,7,52
4.16834,-0.327394,100,8,16,9,10,56
2.467112,-0.378374,100,8,16,10,11,60
2.139777,-0.385597,100,8,16,11,12,64
2.09002,-0.405767,100,8,16,12,13,68
2.641901,-0.454793,100,8,16,13,14,72
3.994702,-0.402713,100,8,16,14,15,76
3.938824,2.681089,100,9,1,2,3,80
2.456319,2.688091,100,9,1,3,4,84
1.807752,2.69486,100,9,1,4,5,88
2.085489,2.691411,100,9,1,5,6,92
2.508824,2.743132,100,9,1,6,7,96
4.08675,2.737269,100,9,1,7,8,100
3.951617,-0.390233,100,9,1,10,11,104
2.558556,-0.381773,100,9,1,11,12,108
2.139137,-0.385694,100,9,1,12,13,112
2.270479,-0.451927,100,9,1,13,14,116
2.517115,-0.361775,100,9,1,14,15,120
4.266078,-0.428882,100,9,1,15,16,124
4.168848,2.669327,100,10,2,3,4,128
2.225387,2.71087,100,10,2,4,5,132
2.130813,2.669228,100,10,2,5,6,136
2.085006,2.691446,100,10,2,6,7,140
2.415862,2.746,100,10,2,7,8,144
3.816441,2.766481,100,10,2,8,9,148
4.129162,-0.416244,100,10,2,11,12,152
2.568263,-0.345773,100,10,2,12,13,156
2.270252,-0.45196,100,10,2,13,14,160
2.189421,-0.366381,100,10,2,14,15,164
2.688188,-0.437796,100,10,2,15,16,168
4.178936,-0.405632,100,11,3,1,2,172
3.804061,2.718066,100,11,3,4,5,176
2.548723,2.651013,100,11,3,5,6,180
2.085489,2.691411,100,11,3,6,7,184
2.046983,2.759952,100,11,3,7,8,188
2.38481,2.805663,100,11,3,8,9,192
4.02269,2.8079,100,11,3,9,10,196
3.945244,-0.307284,100,11,3,12,13,200
2.641025,-0.454791,100,11,3,13,14,204
2.139068,-0.385594,100,11,3,14,15,208
2.225609,-0.43069,100,11,3,15,16,212
2.550908,-0.417838,100,12,4,1,2,216
4.036134,-0.414889,100,12,4,2,3,220
4.445885,2.669263,100,12,4,5,6,224
2.64015,2.686805,100,12,4,6,7,228
2.088635,2.735831,100,12,4,7,8,232
2.004803,2.785022,100,12,4,8,9,236
2.38402,2.805665,100,12,4,9,10,240
3.807802,2.742204,100,12,4,10,11,244
4.269829,-0.537555,100,12,4,13,14,248
2.557625,-0.38167,100,12,4,14,15,252
2.181061,-0.408586,100,12,4,15,16,0
2.230798,-0.389057,100,13,5,1,2,4
2.595261,-0.436499,100,13,5,2,3,8
4.450186,-0.430655,100,13,5,3,4,12
4.036134,2.726703,100,13,5,6,7,16
2.50106,2.669295,100,13,5,7,8,20
1.954071,2.764247,100,13,5,8,9,24
2.088843,2.735863,100,13,5,9,10,28
2.317648,2.709274,100,13,5,10,11,32
3.987475,2.715773,100,13,5,11,12,36
4.09274,-0.381737,100,13,5,14,15,40
2.643661,-0.419714,100,13,5,15,16,44
2.22761,-0.389739,100,14,6,1,2,48
2.09767,-0.361543,100,14,6,2,3,52
2.644452,-0.419618,100,14,6,3,4,56
3.674145,-0.383956,100,14,6,4,5,60
4.031087,2.680786,100,14,6,7,8,64
2.373987,2.766987,100,14,6,8,9,68
2.133039,2.712711,100,14,6,9,10,72
1.899958,2.693645,100,14,6,10,11,76
2.366743,2.728016,100,14,6,11,12,80
3.724617,2.768929,100,14,6,12,13,84
4.085803,-0.404288,100,14,6,15,16,88
2.552008,-0.417809,100,15,7,1,2,92
2.097805,-0.361743,100,15,7,2,3,96
2.182072,-0.408657,100,15,7,3,4,100
2.282249,-0.370579,100,15,7,4,5,104
4.078743,-0.449644,100,15,7,5,6,108
3.809321,2.742333,100,15,7,8,9,112
2.37446,2.767051,100,15,7,9,10,116
1.900337,2.69371,100,15,7,10,11,120
1.954719,2.764244,100,15,7,11,12,124
2.27471,2.730473,100,15,7,12,13,128
3.984887,2.669325,100,15,7,13,14,132
4.1441,-0.371552,100,16,8,1,2,136
2.558638,-0.381872,100,16,8,2,3,140
2.231315,-0.389092,100,16,8,3,4,144
1.913526,-0.35108,100,16,8,4,5,148
2.55839,-0.381573,100,16,8,5,6,152
4.085946,-0.404057,100,16,8,6,7,156
4.001164,2.762116,100,16,8,9,10,160
2.363037,2.688965,100,16,8,10,11,164
1.996824,2.739014,100,16,8,11,12,168
1.947861,2.716943,100,16,8,12,13,172
2.408986,2.66926,100,16,8,13,14,176
3.944179,2.727984,100,16,8,14,15,180
4.044784,-0.392049,100,1,9,2,3,184
2.601765,-0.401028,100,1,9,3,4,188
1.91429,-0.350951,100,1,9,4,5,192
2.23235,-0.389162,100,1,9,5,6,196
2.651903,-0.384808,100,1,9,6,7,200
4.267919,-0.428852,100,1,9,7,8,204
3.801432,2.693775,100,1,9,10,11,208
2.411566,2.7077,100,1,9,11,12,212
1.94857,2.71684,100,1,9,12,13,216
1.993245,2.692509,100,1,9,13,14,220
2.411566,2.7077,100,1,9,14,15,224
3.99523,2.738812,100,1,9,15,16,228
4.179622,-0.4058,100,2,10,3,4,232
2.333491,-0.352939,100,2,10,4,5,236
2.231904,-0.389227,100,2,10,5,6,240
2.231904,-0.389227,100,2,10,6,7,244
2.601421,-0.400961,100,2,10,7,8,248
3.945359,-0.413512,100,2,10,8,9,252
4.124155,2.68056,100,2,10,11,12,0
2.367216,2.72808,100,2,10,12,13,4
2.038779,2.669325,100,2,10,13,14,8
2.04095,2.714648,100,2,10,14,15,12
2.411326,2.707667,100,2,10,15,16,16
4.044784,2.749544,100,3,11,1,2,20
3.776803,-0.361678,100,3,11,4,5,24
2.651552,-0.38474,100,3,11,5,6,28
2.275011,-0.411187,100,3,11,6,7,32
2.190365,-0.366351,100,3,11,7,8,36
2.517869,-0.361678,100,3,11,8,9,40
4.137177,-0.393845,100,3,11,9,10,44
3.760848,2.730907,100,3,11,12,13,48
2.456564,2.650391,100,3,11,13,14,52
2.039049,2.669257,100,3,11,14,15,56
2.039049,2.669257,100,3,11,15,16,60
2.416181,2.745932,100,4,12,1,2,64
3.895974,2.716743,100,4,12,2,3,68
4.45618,-0.410014,100,4,12,5,6,72
2.701372,-0.369351,100,4,12,6,7,76
2.18971,-0.366448,100,4,12,7,8,80
2.18971,-0.366448,100,4,12,8,9,84
2.568602,-0.34584,100,4,12,9,10,88
3.859147,-0.388162,100,4,12,10,11,92
4.010936,2.553501,100,4,12,13,14,96
2.316333,2.66926,100,4,12,14,15,100
2.038438,2.66916,100,4,12,15,16,104
2.047319,2.759785,100,5,13,1,2,108
2.459813,2.725768,100,5,13,2,3,112
4.413986,2.742776,100,5,13,3,4,116
4.103934,-0.359217,100,5,13,6,7,120
2.601246,-0.401093,100,5,13,7,8,124
2.097805,-0.361743,100,5,13,8,9,128
2.178133,-0.451127,100,5,13,9,10,132
2.416344,-0.395528,100,5,13,10,11,136
4.126237,-0.438573,100,5,13,11,12,140
3.755527,2.706213,100,5,13,14,15,144
2.409226,2.669292,100,5,13,15,16,148
2.047457,2.759917,100,6,14,1,2,152
2.04095,2.714648,100,6,14,2,3,156
2.503935,2.706245,100,6,14,3,4,160
3.684214,2.78276,100,6,14,4,5,164
4.130531,-0.416247,100,6,14,7,8,168
2.477209,-0.341052,100,6,14,8,9,172
2.139563,-0.385629,100,6,14,9,10,176
2.04095,-0.426945,100,6,14,10,11,180
2.503935,-0.435348,100,6,14,11,12,184
3.827693,-0.350916,100,6,14,12,13,188
3.893444,2.69303,100,6,14,15,16,192
2.361091,2.727243,100,7,15,1,2,196
2.035742,2.714042,100,7,15,2,3,200
2.080027,2.690673,100,7,15,3,4,204
2.228197,2.751718,100,7,15,4,5,208
3.942831,2.704534,100,7,15,5,6,212
3.962404,-0.366849,100,7,15,8,9,216
2.569967,-0.345779,100,7,15,9,10,220
2.090504,-0.405803,100,7,15,10,11,224
2.09892,-0.361681,100,7,15,11,12,228
2.478031,-0.341055,100,7,15,12,13,232
4.078911,-0.472271,100,7,15,13,14,236
4.022525,2.703123,100,8,16,1,2,240
2.449075,2.687356,100,8,16,2,3,244
2.036886,2.714004,100,8,16,3,4,248
1.905102,2.742298,100,8,16,4,5,252
2.364209,2.688795,100,8,16,5,6,0
3.952534,2.751325,100,8,16,6,7,4
4.155956,-0.349463,100,8,16,9,10,8
2.467358,-0.378342,100,8,16,10,11,12
2.098224,-0.361678,100,8,16,11,12,16
2.098224,-0.361678,100,8,16,12,13,20
2.641901,-0.454793,100,8,16,13,14,24
4.038005,-0.41496,100,8,16,14,15,28
3.938824,2.681089,100,9,1,2,3,32
2.548806,2.687273,100,9,1,3,4,36
1.855626,2.719151,100,9,1,4,5,40
2.038642,2.669193,100,9,1,5,6,44
2.551753,2.723751,100,9,1,6,7,48
4.037602,2.726601,100,9,1,7,8,52
3.867776,-0.364421,100,9,1,10,11,56
2.558556,-0.381773,100,9,1,11,12,60
2.097596,-0.361775,100,9,1,12,13,64
2.225609,-0.43069,100,9,1,13,14,68
2.517366,-0.361743,100,9,1,14,15,72
4.266504,-0.428849,100,9,1,15,16,76
4.168983,2.669228,100,10,2,3,4,80
2.225387,2.71087,100,10,2,4,5,84
2.085006,2.647009,100,10,2,5,6,88
2.046574,2.759888,100,10,2,6,7,92
2.415862,2.746,100,10,2,7,8,96
3.76607,2.755433,100,10,2,8,9,100
4.227758,-0.395593,100,10,2,11,12,104
2.452882,-0.282377,100,10,2,12,13,108
2.225387,-0.430722,100,10,2,13,14,112
2.148863,-0.342662,100,10,2,14,15,116
2.688275,-0.437896,100,10,2,15,16,120
4.136218,-0.39381,100,11,3,1,2,124
3.711132,2.719251,100,11,3,4,5,128
2.548723,2.651013,100,11,3,5,6,132
2.046983,2.759952,100,11,3,6,7,136
2.089327,2.735828,100,11,3,7,8,140
2.332951,2.788689,100,11,3,8,9,144
4.093557,2.75992,100,11,3,9,10,148
3.907526,-0.293639,100,11,3,12,13,152
2.595946,-0.436634,100,11,3,13,14,156
2.189639,-0.366348,100,11,3,14,15,160
2.225609,-0.43069,100,11,3,15,16,164
2.60004,-0.401022,100,12,4,1,2,168
4.079602,-0.426907,100,12,4,2,3,172
4.399817,2.658737,100,12,4,5,6,176
2.550908,2.723754,100,12,4,6,7,180
2.088702,2.735731,100,12,4,7,8,184
2.004803,2.785022,100,12,4,8,9,188
2.55099,2.723655,100,12,4,9,10,192
3.723503,2.768832,100,12,4,10,11,196
4.261784,-0.494165,100,12,4,13,14,200
2.60836,-0.365694,100,12,4,14,15,204
2.224943,-0.430787,100,12,4,15,16,208
2.189061,-0.366213,100,13,5,1,2,212
2.692704,-0.403441,100,13,5,2,3,216
4.450486,-0.430523,100,13,5,3,4,220
3.944052,2.728083,100,13,5,6,7,224
2.458673,2.725839,100,13,5,7,8,228
1.954071,2.764247,100,13,5,8,9,232
2.084731,2.691514,100,13,5,9,10,236
2.27373,2.730443,100,13,5,10,11,240
3.85119,2.729463,100,13,5,11,12,244
4.061696,-0.346628,100,13,5,14,15,248
2.643747,-0.419814,100,13,5,15,16,252
2.185715,-0.366928,100,14,6,1,2,0
2.231538,-0.389059,100,14,6,2,3,4
2.644538,-0.419717,100,14,6,3,4,8
3.674263,-0.384056,100,14,6,4,5,12
3.938165,2.680924,100,14,6,7,8,16
2.323733,2.74909,100,14,6,8,9,20
2.085214,2.691479,100,14,6,9,10,24
1.899958,2.693645,100,14,6,10,11,28
2.373987,2.766987,100,14,6,11,12,32
3.867266,2.777239,100,14,6,12,13,36
4.135526,-0.393975,100,14,6,15,16,40
2.601162,-0.400993,100,15,7,1,2,44
2.189928,-0.366416,100,15,7,2,3,48
2.225903,-0.430758,100,15,7,3,4,52
2.324197,-0.392438,100,15,7,4,5,56
4.078612,-0.449545,100,15,7,5,6,60
3.759976,2.730942,100,15,7,8,9,64
2.548559,2.687572,100,15,7,9,10,68
1.945913,2.669292,100,15,7,10,11,72
1.997087,2.738947,100,15,7,11,12,76
2.323965,2.749122,100,15,7,12,13,80
3.988926,2.715671,100,15,7,13,14,84
4.102574,-0.359214,100,16,8,1,2,88
2.558383,-0.381905,100,16,8,2,3,92
2.181784,-0.408589,100,16,8,3,4,96
1.996953,-0.402778,100,16,8,4,5,100
2.551671,-0.417741,100,16,8,5,6,104
4.178519,-0.405665,100,16,8,6,7,108
4.178519,2.735928,100,16,8,9,10,112
2.31811,2.709338,100,16,8,10,11,116
2.040411,2.714783,100,16,8,11,12,120
1.947667,2.716911,100,16,8,12,13,124
2.503354,2.70628,100,16,8,13,14,128
3.895723,2.716943,100,16,8,14,15,132
4.044784,-0.392049,100,1,9,2,3,136
2.559321,-0.381676,100,1,9,3,4,140
1.99755,-0.402681,100,1,9,4,5,144
2.23235,-0.389162,100,1,9,5,6,148
2.651903,-0.384808,100,1,9,6,7,152
4.267781,-0.428753,100,1,9,7,8,156
3.712363,2.719248,100,1,9,10,11,160
2.367528,2.728013,100,1,9,11,12,164
1.94857,2.71684,100,1,9,12,13,168
2.085905,2.691476,100,1,9,13,14,172
2.411566,2.7077,100,1,9,14,15,176
3.99523,2.738812,100,1,9,15,16,180
4.179622,-0.4058,100,2,10,3,4,184
2.333491,-0.352939,100,2,10,4,5,188
2.231904,-0.389227,100,2,10,5,6,192
2.231904,-0.389227,100,2,10,6,7,196
2.596548,-0.436669,100,2,10,7,8,200
3.945359,-0.413512,100,2,10,8,9,204
4.031489,2.680818,100,2,10,11,12,208
2.367292,2.727981,100,2,10,12,13,212
2.08563,2.691543,100,2,10,13,14,216
2.08563,2.691543,100,2,10,14,15,220
2.411326,2.707667,100,2,10,15,16,224
4.012266,2.785016,100,3,11,1,2,228
3.73584,-0.348013,100,3,11,4,5,232
2.702093,-0.369154,100,3,11,5,6,236
2.241728,-0.347981,100,3,11,6,7,240
2.226347,-0.430693,100,3,11,7,8,244
2.517869,-0.361678,100,3,11,8,9,248
4.229581,-0.395564,100,3,11,9,10,252
3.902647,2.740565,100,3,11,12,13,0
2.363897,2.649652,100,3,11,13,14,4
2.039049,2.669257,100,3,11,14,15,8
2.085905,2.691476,100,3,11,15,16,12
2.459322,2.725704,100,4,12,1,2,16
3.852207,2.729329,100,4,12,2,3,20
4.499796,-0.420932,100,4,12,5,6,24
2.752531,-0.35434,100,4,12,6,7,28
2.27433,-0.411284,100,4,12,7,8,32
2.149147,-0.34273,100,4,12,8,9,36
2.644274,-0.41975,100,4,12,9,10,40
3.988399,-0.425855,100,4,12,10,11,44
3.988399,2.622782,100,4,12,13,14,48
2.408986,2.66926,100,4,12,14,15,52
2.038373,2.66926,100,4,12,15,16,56
2.085765,2.691344,100,5,13,1,2,60
2.459813,2.725768,100,5,13,2,3,64
4.413986,2.742776,100,5,13,3,4,68
4.186391,-0.383744,100,5,13,6,7,72
2.644623,-0.419817,100,5,13,7,8,76
2.149361,-0.342698,100,5,13,8,9,80
2.189857,-0.366316,100,5,13,9,10,84
2.416344,-0.395528,100,5,13,10,11,88
4.081362,-0.426877,100,5,13,11,12,92
3.848007,2.705421,100,5,13,14,15,96
2.409226,2.669292,100,5,13,15,16,100
2.04095,2.714648,100,6,14,1,2,104
2.04095,2.714648,100,6,14,2,3,108
2.503935,2.706245,100,6,14,3,4,112
3.63316,2.771531,100,6,14,4,5,116
4.130531,-0.416247,100,6,14,7,8,120
2.517617,-0.361711,100,6,14,8,9,124
2.149575,-0.342665,100,6,14,9,10,128
2.047457,-0.381676,100,6,14,10,11,132
2.552345,-0.417876,100,6,14,11,12,136
3.868548,-0.364356,100,6,14,12,13,140
3.893318,2.69313,100,6,14,15,16,144
2.497376,2.705507,100,7,15,1,2,148
1.992254,2.738273,100,7,15,2,3,152
2.080027,2.690673,100,7,15,3,4,156
2.229307,2.751879,100,7,15,4,5,160
3.898044,2.716805,100,7,15,5,6,164
3.921126,-0.353881,100,7,15,8,9,168
2.602368,-0.401063,100,7,15,9,10,172
2.048136,-0.381679,100,7,15,10,11,176
2.183013,-0.408627,100,7,15,11,12,180
2.438623,-0.319622,100,7,15,12,13,184
4.079964,-0.449548,100,7,15,13,14,188
4.026769,2.726062,100,8,16,1,2,192
2.404215,2.706933,100,8,16,2,3,196
2.034988,2.668613,100,8,16,3,4,200
1.905102,2.742298,100,8,16,4,5,204
2.456809,2.688155,100,8,16,5,6,208
3.952928,2.751357,100,8,16,6,7,212
4.237835,-0.373855,100,8,16,9,10,216
2.467112,-0.378374,100,8,16,10,11,220
2.182725,-0.40856,100,8,16,11,12,224
2.072478,-0.292482,100,8,16,12,13,228
2.504184,-0.435315,100,8,16,13,14,232
4.087565,-0.404259,100,8,16,14,15,236
3.892215,2.669325,100,9,1,2,3,240
2.502219,2.669225,100,9,1,3,4,244
1.855626,2.719151,100,9,1,4,5,248
2.038642,2.669193,100,9,1,5,6,252
2.416344,2.746064,100,9,1,6,7,0
4.043978,2.749479,100,9,1,7,8,4
3.951617,-0.390233,100,9,1,10,11,8
2.558556,-0.381773,100,9,1,11,12,12
2.071858,-0.292579,100,9,1,12,13,16
2.182001,-0.408557,100,9,1,13,14,20
2.600902,-0.401025,100,9,1,14,15,24
4.266078,-0.428882,100,9,1,15,16,28
4.169878,2.691546,100,10,2,3,4,32
2.225387,2.71087,100,10,2,4,5,36
2.038169,2.669228,100,10,2,5,6,40
2.040274,2.714651,100,10,2,6,7,44
2.458998,2.725771,100,10,2,7,8,48
3.816564,2.766381,100,10,2,8,9,52
4.227758,-0.395593,100,10,2,11,12,56
2.452882,-0.282377,100,10,2,12,13,60
2.225387,-0.430722,100,10,2,13,14,64
2.148863,-0.342662,100,10,2,14,15,68
2.688275,-0.437896,100,10,2,15,16,72
4.093965,-0.38164,100,11,3,1,2,76
3.667494,2.732499,100,11,3,4,5,80
2.548723,2.651013,100,11,3,5,6,84
2.085489,2.691411,100,11,3,6,7,88
2.085214,2.691479,100,11,3,7,8,92
2.373987,2.766987,100,11,3,8,9,96
4.037069,2.726668,100,11,3,9,10,100
3.89199,-0.316968,100,11,3,12,13,104
2.600902,-0.401025,100,11,3,13,14,108
2.097528,-0.361675,100,11,3,14,15,112
2.225609,-0.43069,100,11,3,15,16,116
2.507662,-0.398391,100,12,4,1,2,120
4.128617,-0.416177,100,12,4,2,3,124
4.399817,2.658737,100,12,4,5,6,128
2.595086,2.704962,100,12,4,6,7,132
2.037697,2.669263,100,12,4,7,8,136
2.004803,2.785022,100,12,4,8,9,140
2.41538,2.745935,100,12,4,9,10,144
3.798779,2.693549,100,12,4,10,11,148
4.128338,-0.416309,100,12,4,13,14,152
2.5162,-0.361673,100,12,4,14,15,156
2.224943,-0.430787,100,12,4,15,16,160
2.181208,-0.408454,100,13,5,1,2,164
2.650324,-0.38467,100,13,5,2,3,168
4.45063,-0.430623,100,13,5,3,4,172
4.080009,2.714718,100,13,5,6,7,176
2.408428,2.669295,100,13,5,7,8,180
1.954071,2.764247,100,13,5,8,9,184
2.040005,2.714718,100,13,5,9,10,188
2.23087,2.752436,100,13,5,10,11,192
3.857993,2.753334,100,13,5,11,12,196
3.96981,-0.343701,100,13,5,14,15,200
2.643661,-0.419714,100,13,5,15,16,204
2.135872,-0.386078,100,14,6,1,2,208
2.181931,-0.408457,100,14,6,2,3,212
2.688724,-0.437732,100,14,6,3,4,216
3.766567,-0.386227,100,14,6,4,5,220
3.845775,2.657245,100,14,6,7,8,224
2.323733,2.74909,100,14,6,8,9,228
2.040477,2.714683,100,14,6,9,10,232
1.904281,2.742268,100,14,6,10,11,236
2.323501,2.749058,100,14,6,11,12,240
3.816821,2.766513,100,14,6,12,13,244
4.135393,-0.393875,100,14,6,15,16,248
2.517204,-0.361543,100,15,7,1,2,252
2.182072,-0.408657,100,15,7,2,3,0
2.182001,-0.408557,100,15,7,3,4,4
2.374223,-0.374573,100,15,7,4,5,8
4.12637,-0.438673,100,15,7,5,6,12
3.803682,2.718034,100,15,7,8,9,16
2.41117,2.707867,100,15,7,9,10,20
1.904661,2.742333,100,15,7,10,11,24
1.948313,2.716908,100,15,7,11,12,28
2.416344,2.746064,100,15,7,12,13,32
3.994175,2.738947,100,15,7,13,14,36
4.062507,-0.346563,100,16,8,1,2,40
2.608965,-0.365729,100,16,8,2,3,44
2.225609,-0.43069,100,16,8,3,4,48
1.947987,-0.424849,100,16,8,4,5,52
2.551671,-0.417741,100,16,8,5,6,56
4.077535,-0.44941,100,16,8,6,7,60
3.985041,2.692611,100,16,8,9,10,64
2.274183,2.730508,100,16,8,10,11,68
1.99252,2.692611,100,16,8,11,12,72
1.996824,2.739014,100,16,8,12,13,76
2.45575,2.688126,100,16,8,13,14,80
3.900964,2.740535,100,16,8,14,15,84
4.044784,-0.392049,100,1,9,2,3,88
2.601765,-0.401028,100,1,9,3,4,92
1.99755,-0.402681,100,1,9,4,5,96
2.13999,-0.385565,100,1,9,5,6,100
2.651903,-0.384808,100,1,9,6,7,104
4.267919,-0.428852,100,1,9,7,8,108
3.754364,2.656944,100,1,9,10,11,112
2.367764,2.728045,100,1,9,11,12,116
1.99775,2.738944,100,1,9,12,13,120
2.085905,2.691476,100,1,9,13,14,124
2.367764,2.728045,100,1,9,14,15,128
3.952406,2.751425,100,1,9,15,16,132
4.179622,-0.4058,100,2,10,3,4,136
2.385363,-0.335965,100,2,10,4,5,140
2.190076,-0.366284,100,2,10,5,6,144
2.231904,-0.389227,100,2,10,6,7,148
2.644887,-0.419785,100,2,10,7,8,152
3.945359,-0.413512,100,2,10,8,9,156
3.893318,2.69313,100,2,10,11,12,160
2.508993,2.743264,100,2,10,12,13,164
2.13152,2.669225,100,2,10,13,14,168
1.997351,2.738879,100,2,10,14,15,172
2.456319,2.688091,100,2,10,15,16,176
3.93225,2.811154,100,3,11,1,2,180
3.787781,-0.337391,100,3,11,4,5,184
2.651373,-0.384872,100,3,11,5,6,188
2.28255,-0.370647,100,3,11,6,7,192
2.275011,-0.411187,100,3,11,7,8,196
2.517869,-0.361678,100,3,11,8,9,200
4.272522,-0.40721,100,3,11,9,10,204
3.85336,2.729425,100,3,11,12,13,208
2.502469,2.669257,100,3,11,13,14,212
1.993245,2.692509,100,3,11,14,15,216
2.085905,2.647039,100,3,11,15,16,220
2.517034,2.779917,100,4,12,1,2,224
3.901479,2.740468,100,4,12,2,3,228
4.54866,-0.411284,100,4,12,5,6,232
2.712385,-0.335266,100,4,12,6,7,236
2.318185,-0.432354,100,4,12,7,8,240
2.149147,-0.34273,100,4,12,8,9,244
2.600986,-0.401125,100,4,12,9,10,248
3.852083,-0.412164,100,4,12,10,11,252
3.938431,2.657528,100,4,12,13,14,0
2.45575,2.688126,100,4,12,14,15,4
2.038373,2.66926,100,4,12,15,16,8
2.089879,2.735693,100,5,13,1,2,12
2.416663,2.745997,100,5,13,2,3,16
4.413986,2.742776,100,5,13,3,4,20
4.154993,-0.349428,100,5,13,6,7,24
2.596289,-0.436701,100,5,13,7,8,28
2.097805,-0.361743,100,5,13,8,9,32
2.231682,-0.389259,100,5,13,9,10,36
2.416344,-0.395528,100,5,13,10,11,40
4.037472,-0.414892,100,5,13,11,12,44
3.89293,2.693097,100,5,13,14,15,48
2.409226,2.669292,100,5,13,15,16,52
2.085697,2.691443,100,6,14,1,2,56
1.99755,2.738912,100,6,14,2,3,60
2.503935,2.706245,100,6,14,3,4,64
3.633277,2.771432,100,6,14,4,5,68
4.130531,-0.416247,100,6,14,7,8,72
2.477456,-0.34102,100,6,14,8,9,76
2.231904,-0.389227,100,6,14,9,10,80
2.047253,-0.381708,100,6,14,10,11,84
2.552345,-0.417876,100,6,14,11,12,88
3.909827,-0.377316,100,6,14,12,13,92
3.938951,2.680989,100,6,14,15,16,96
2.502502,2.742426,100,7,15,1,2,100
1.943403,2.716202,100,7,15,2,3,104
2.07996,2.690773,100,7,15,3,4,108
2.230196,2.752008,100,7,15,4,5,112
3.898433,2.716837,100,7,15,5,6,116
3.91125,-0.377419,100,7,15,8,9,120
2.652253,-0.384875,100,7,15,9,10,124
2.047932,-0.381711,100,7,15,10,11,128
2.183231,-0.408595,100,7,15,11,12,132
2.438945,-0.319689,100,7,15,12,13,136
4.127605,-0.438576,100,7,15,13,14,140
3.899073,2.763606,100,8,16,1,2,144
2.356925,2.688128,100,8,16,2,3,148
2.081959,2.690863,100,8,16,3,4,152
1.855996,2.719216,100,8,16,4,5,156
2.456809,2.688155,100,8,16,5,6,160
4.032554,2.680683,100,8,16,6,7,164
4.280119,-0.385665,100,8,16,9,10,168
2.467358,-0.378342,100,8,16,10,11,172
2.182507,-0.408592,100,8,16,11,12,176
2.035886,-0.266012,100,8,16,12,13,180
2.559321,-0.381676,100,8,16,13,14,184
4.087157,-0.404291,100,8,16,14,15,188
3.846158,2.657277,100,9,1,2,3,192
2.456074,2.688058,100,9,1,3,4,196
1.900208,2.693578,100,9,1,4,5,200
2.038576,2.669292,100,9,1,5,6,204
2.46646,2.763354,100,9,1,6,7,208
4.129707,2.725281,100,9,1,7,8,212
3.858887,-0.388294,100,9,1,10,11,216
2.558556,-0.381773,100,9,1,11,12,220
2.035212,-0.266009,100,9,1,12,13,224
2.189639,-0.366348,100,9,1,13,14,228
2.558473,-0.381673,100,9,1,14,15,232
4.218016,-0.439378,100,9,1,15,16,236
4.21598,2.680249,100,10,2,3,4,240
2.225387,2.71087,100,10,2,4,5,244
2.038169,2.669228,100,10,2,5,6,248
2.138854,2.755966,100,10,2,6,7,252
2.503105,2.706248,100,10,2,7,8,0
3.76607,2.755433,100,10,2,8,9,4
4.185421,-0.383709,100,10,2,11,12,8
2.507387,-0.267723,100,10,2,12,13,12
2.138854,-0.385627,100,10,2,13,14,16
2.189421,-0.366381,100,10,2,14,15,20
2.688188,-0.437796,100,10,2,15,16,24
4.278989,-0.38553,100,11,3,1,2,28
3.711132,2.719251,100,11,3,4,5,32
2.548723,2.651013,100,11,3,5,6,36
2.040681,2.714716,100,11,3,6,7,40
2.085214,2.691479,100,11,3,7,8,44
2.373987,2.766987,100,11,3,8,9,48
4.173515,2.713675,100,11,3,9,10,52
3.930947,-0.330436,100,11,3,12,13,56
2.508493,-0.398394,100,11,3,13,14,60
2.149077,-0.34263,100,11,3,14,15,64
2.223679,-0.472333,100,11,3,15,16,68
2.55788,-0.381638,100,12,4,1,2,72
4.128205,-0.416209,100,12,4,2,3,76
4.400256,2.679821,100,12,4,5,6,80
2.551162,2.723787,100,12,4,6,7,84
2.13032,2.669263,100,12,4,7,8,88
2.004803,2.785022,100,12,4,8,9,92
2.507743,2.743102,100,12,4,9,10,96
3.807802,2.742204,100,12,4,10,11,100
4.079734,-0.427006,100,12,4,13,14,104
2.60836,-0.365694,100,12,4,14,15,108
2.224871,-0.430687,100,12,4,15,16,112
2.189061,-0.366213,100,13,5,1,2,116
2.650059,-0.384702,100,13,5,2,3,120
4.402502,-0.440597,100,13,5,3,4,124
