BIOZ1_MAG,BIOZ1_PHASE,EXC_FREQ_KHZ,EXC_PIN,GND_PIN,SNS_AP_PIN,SNS_AN_PIN,PACKET_NUMBER
4.169117,0.006365,1,1,9,7,8,167
3.866278,-3.137817,1,1,9,10,11,171
2.491668,-3.139479,1,1,9,11,12,175
2.18286,3.138963,1,1,9,12,13,179
2.239369,3.137534,1,1,9,13,14,183
2.492442,-3.139541,1,1,9,14,15,187
4.174882,-3.135347,1,1,9,15,16,191
4.113902,-0.006025,1,2,10,3,4,195
2.326766,0.006371,1,2,10,4,5,199
2.156144,0.011392,1,2,10,5,6,203
2.100181,0.013031,1,2,10,6,7,207
2.491389,0.002522,1,2,10,7,8,211
3.831999,-0.002341,1,2,10,8,9,215
4.170845,3.134826,1,2,10,11,12,219
2.65695,3.140705,1,2,10,12,13,223
2.238024,3.138014,1,2,10,13,14,227
2.127258,3.140573,1,2,10,14,15,231
2.574598,-3.129976,1,2,10,15,16,235
4.200152,3.127647,1,3,11,1,2,239
3.810471,0.004804,1,3,11,4,5,243
2.605771,-0.000212,1,3,11,5,6,247
2.101474,0.012819,1,3,11,6,7,251
2.127248,-0.001109,1,3,11,7,8,255
2.37829,0.005191,1,3,11,8,9,3
4.142109,0.000319,1,3,11,9,10,7
4.084668,-3.14047,1,3,11,12,13,11
2.60462,3.141494,1,3,11,13,14,15
2.127908,3.140422,1,3,11,14,15,19
2.129309,3.140162,1,3,11,15,16,23
2.54896,-3.140786,1,4,12,1,2,27
4.034737,-3.140192,1,4,12,2,3,31
4.426679,0.009227,1,4,12,5,6,35
2.637179,0.009423,1,4,12,6,7,39
2.156954,0.010879,1,4,12,7,8,43
1.990662,0.016133,1,4,12,8,9,47
2.52229,0.012494,1,4,12,9,10,51
3.812299,0.004554,1,4,12,10,11,55
4.144991,3.141515,1,4,12,13,14,59
2.491341,-3.139428,1,4,12,14,15,63
2.103302,-3.129269,1,4,12,15,16,67
2.21257,-3.132168,1,5,13,1,2,71
2.575154,-3.130122,1,5,13,2,3,75
4.534841,3.137139,1,5,13,3,4,79
4.088623,0.000802,1,5,13,6,7,83
2.492911,0.002221,1,5,13,7,8,87
1.958824,0.00337,1,5,13,8,9,91
2.072876,2e-06,1,5,13,9,10,95
2.380481,0.004828,1,5,13,10,11,99
3.976442,0.002482,1,5,13,11,12,103
4.031021,-3.139829,1,5,13,14,15,107
2.547391,-3.140574,1,5,13,15,16,111
2.185048,3.139268,1,6,14,1,2,115
2.099905,-3.12851,1,6,14,2,3,119
2.658149,3.14077,1,6,14,3,4,123
3.834196,3.139087,1,6,14,4,5,127
4.02945,0.002009,1,6,14,7,8,131
2.325321,0.006494,1,6,14,8,9,135
2.045696,0.014726,1,6,14,9,10,139
1.989999,0.0166,1,6,14,10,11,143
2.38252,0.004916,1,6,14,11,12,147
4.002912,-0.004795,1,6,14,12,13,151
4.088835,-3.140659,1,6,14,15,16,155
2.578787,-3.130556,1,7,15,1,2,159
2.07085,-3.141448,1,7,15,2,3,163
2.184903,3.138868,1,7,15,3,4,167
2.3509,3.135521,1,7,15,4,5,171
4.033012,-3.139811,1,7,15,5,6,175
3.864299,0.004251,1,7,15,8,9,179
2.493275,0.002437,1,7,15,9,10,183
2.01608,0.002017,1,7,15,10,11,187
2.016155,0.001881,1,7,15,11,12,191
2.546088,0.001494,1,7,15,12,13,195
4.087606,0.001174,1,7,15,13,14,199
4.080872,-3.140286,1,8,16,1,2,203
2.491716,-3.139122,1,8,16,2,3,207
2.156701,-3.130394,1,8,16,3,4,211
1.984317,3.130496,1,8,16,4,5,215
2.547345,-3.14008,1,8,16,5,6,219
4.194237,3.141508,1,8,16,6,7,223
4.142909,0.000577,1,8,16,9,10,227
2.377776,0.005337,1,8,16,10,11,231
2.015985,0.001975,1,8,16,11,12,235
2.126419,-0.000865,1,8,16,12,13,239
2.548794,0.001258,1,8,16,13,14,243
4.115489,0.007649,1,8,16,14,15,247
4.036502,-3.140395,1,9,1,2,3,251
2.603419,3.14125,1,9,1,3,4,255
1.991543,-3.125573,1,9,1,4,5,3
2.271137,-3.134328,1,9,1,5,6,7
2.71652,3.13892,1,9,1,6,7,11
4.258176,3.139899,1,9,1,7,8,15
3.812441,0.004417,1,9,1,10,11,19
2.436598,0.00325,1,9,1,11,12,23
2.129278,-0.001699,1,9,1,12,13,27
2.215474,0.008816,1,9,1,13,14,31
2.660884,-0.001684,1,9,1,14,15,35
4.147349,-0.000332,1,9,1,15,16,39
4.199599,3.141126,1,10,2,3,4,43
2.379978,-3.136529,1,10,2,4,5,47
2.240191,3.137693,1,10,2,5,6,51
2.32294,-3.134999,1,10,2,6,7,55
2.577006,-3.130071,1,10,2,7,8,59
3.917833,-3.13818,1,10,2,8,9,63
4.086299,0.001057,1,10,2,11,12,67
2.546746,0.001301,1,10,2,12,13,71
2.239496,-0.003838,1,10,2,13,14,75
2.213163,0.009411,1,10,2,14,15,79
2.52043,0.012937,1,10,2,15,16,83
4.139469,-0.013165,1,11,3,1,2,87
3.830738,3.138956,1,11,3,4,5,91
2.657162,3.140522,1,11,3,5,6,95
2.379329,-3.136604,1,11,3,6,7,99
2.211489,-3.132097,1,11,3,7,8,103
2.489388,-3.139027,1,11,3,8,9,107
4.28088,-3.13658,1,11,3,9,10,111
4.028143,0.001802,1,11,3,12,13,115
2.57617,0.011316,1,11,3,13,14,119
2.181312,-0.002501,1,11,3,14,15,123
2.126848,-0.001278,1,11,3,15,16,127
2.490124,0.002236,1,12,4,1,2,131
4.030073,0.001553,1,12,4,2,3,135
4.505932,-3.139696,1,12,4,5,6,139
2.828756,3.136875,1,12,4,6,7,143
2.212549,-3.132346,1,12,4,7,8,147
2.126178,3.140286,1,12,4,8,9,151
2.546242,-3.140639,1,12,4,9,10,155
3.918991,-3.13851,1,12,4,10,11,159
4.085511,0.000799,1,12,4,13,14,163
2.546924,0.000939,1,12,4,14,15,167
2.099391,0.012693,1,12,4,15,16,171
2.098938,0.012839,1,13,5,1,2,175
2.520512,0.012711,1,13,5,2,3,179
4.446227,0.002913,1,13,5,3,4,183
4.2503,3.140447,1,13,5,6,7,187
2.517945,-3.128692,1,13,5,7,8,191
2.097549,-3.128584,1,13,5,8,9,195
2.154574,-3.130431,1,13,5,9,10,199
2.377541,-3.13643,1,13,5,10,11,203
4.034566,-3.140145,1,13,5,11,12,207
4.088796,0.000755,1,13,5,14,15,211
2.492114,0.002104,1,13,5,15,16,215
2.102383,0.012527,1,14,6,1,2,219
2.103036,0.012465,1,14,6,2,3,223
2.602294,-5.1e-05,1,14,6,3,4,227
3.776806,-0.001952,1,14,6,4,5,231
4.060347,3.135879,1,14,6,7,8,235
2.466182,3.132879,1,14,6,8,9,239
2.127628,3.140474,1,14,6,9,10,243
1.960833,-3.138323,1,14,6,10,11,247
2.433636,-3.137651,1,14,6,11,12,251
4.055693,3.13621,1,14,6,12,13,255
4.058982,0.008499,1,14,6,15,16,3
2.463549,0.015141,1,15,7,1,2,7
2.068994,0.000954,1,15,7,2,3,11
2.157696,0.011443,1,15,7,3,4,15
2.322155,0.00697,1,15,7,4,5,19
3.973156,0.00293,1,15,7,5,6,23
3.945356,3.137782,1,15,7,8,9,27
2.544845,-3.140028,1,15,7,9,10,31
1.959377,-3.137969,1,15,7,10,11,35
2.044985,-3.126668,1,15,7,11,12,39
2.601854,-3.141455,1,15,7,12,13,43
4.141604,-3.141044,1,15,7,13,14,47
4.082751,0.001551,1,16,8,1,2,51
2.433659,0.004121,1,16,8,2,3,55
2.12548,-0.000752,1,16,8,3,4,59
1.959377,0.003624,1,16,8,4,5,63
2.488862,0.0028,1,16,8,5,6,67
4.026424,0.002183,1,16,8,6,7,71
4.25094,3.140752,1,16,8,9,10,75
2.407233,-3.125263,1,16,8,10,11,79
2.069421,-3.140963,1,16,8,11,12,83
2.236847,3.138221,1,16,8,12,13,87
2.601867,-3.141366,1,16,8,13,14,91
4.084879,-3.140338,1,16,8,14,15,95
4.003285,0.008871,1,1,9,2,3,99
2.520169,0.012674,1,1,9,3,4,103
1.960527,0.002875,1,1,9,4,5,107
2.127598,-0.001387,1,1,9,5,6,111
2.521626,0.012598,1,1,9,6,7,115
4.087335,0.000774,1,1,9,7,8,119
3.86388,-3.137694,1,1,9,10,11,123
2.493215,-3.139603,1,1,9,11,12,127
2.211956,-3.132332,1,1,9,12,13,131
2.209993,-3.132194,1,1,9,13,14,135
2.603321,3.141386,1,1,9,14,15,139
4.170822,-3.135115,1,1,9,15,16,143
4.140845,0.000469,1,2,10,3,4,147
2.323977,0.00657,1,2,10,4,5,151
2.15508,0.011373,1,2,10,5,6,155
2.156711,0.011288,1,2,10,6,7,159
2.518974,0.013013,1,2,10,7,8,163
3.778192,-0.001793,1,2,10,8,9,167
4.169179,3.134893,1,2,10,11,12,171
2.657536,3.140648,1,2,10,12,13,175
2.238423,3.138004,1,2,10,13,14,179
2.183189,3.139269,1,2,10,14,15,183
2.576086,-3.130052,1,2,10,15,16,187
4.139274,3.128386,1,3,11,1,2,191
3.753306,0.005787,1,3,11,4,5,195
2.601952,1e-06,1,3,11,5,6,199
2.18162,-0.002375,1,3,11,6,7,203
2.102581,0.012611,1,3,11,7,8,207
2.43534,0.003636,1,3,11,8,9,211
4.177142,0.006306,1,3,11,9,10,215
4.087182,-3.140682,1,3,11,12,13,219
2.60495,3.141352,1,3,11,13,14,223
2.214235,-3.132343,1,3,11,14,15,227
2.183352,3.138996,1,3,11,15,16,231
2.491341,-3.139428,1,4,12,1,2,235
4.058494,3.135725,1,4,12,2,3,239
4.454089,0.00246,1,4,12,5,6,243
2.747376,0.006993,1,4,12,6,7,247
2.12967,-0.001619,1,4,12,7,8,251
2.015396,0.001543,1,4,12,8,9,255
2.523512,0.012334,1,4,12,9,10,3
3.836503,-0.002986,1,4,12,10,11,7
4.149967,3.141316,1,4,12,13,14,11
2.637068,-3.132123,1,4,12,14,15,15
2.158668,-3.130936,1,4,12,15,16,19
2.103145,-3.128996,1,5,13,1,2,23
2.604717,3.141357,1,5,13,2,3,27
4.538639,3.13687,1,5,13,3,4,31
4.202187,-0.000679,1,5,13,6,7,35
2.49534,0.001989,1,5,13,7,8,39
1.991047,0.016392,1,5,13,8,9,43
2.104164,0.012436,1,5,13,9,10,47
2.324774,0.006283,1,5,13,10,11,51
3.976797,0.002477,1,5,13,11,12,55
4.14207,-3.141453,1,5,13,14,15,59
2.547954,-3.140631,1,5,13,15,16,63
2.0709,-3.141001,1,6,14,1,2,67
2.126799,3.140718,1,6,14,2,3,71
2.6572,3.140789,1,6,14,3,4,75
3.831477,3.139215,1,6,14,4,5,79
3.970842,0.002916,1,6,14,7,8,83
2.378402,0.005233,1,6,14,8,9,87
2.071522,0.000351,1,6,14,9,10,91
1.961626,0.003293,1,6,14,10,11,95
2.382621,0.004869,1,6,14,11,12,99
3.978406,0.0025,1,6,14,12,13,103
4.062035,-3.133268,1,6,14,15,16,107
2.438329,-3.138471,1,7,15,1,2,111
2.103046,-3.129038,1,7,15,2,3,115
2.215809,-3.132471,1,7,15,3,4,119
2.380929,-3.136596,1,7,15,4,5,123
4.062398,-3.133273,1,7,15,5,6,127
3.891232,-0.0033,1,7,15,8,9,131
2.521461,0.013049,1,7,15,9,10,135
1.962503,0.003269,1,7,15,10,11,139
1.990458,0.016722,1,7,15,11,12,143
2.550821,0.001036,1,7,15,12,13,147
4.066891,0.008036,1,7,15,13,14,151
4.088855,-3.140569,1,8,16,1,2,155
2.495693,-3.139477,1,8,16,2,3,159
2.184637,3.139099,1,8,16,3,4,163
2.048874,-3.127174,1,8,16,4,5,167
2.549357,-3.140391,1,8,16,5,6,171
4.095422,-3.140746,1,8,16,6,7,175
4.200193,-0.00034,1,8,16,9,10,179
2.328003,0.006253,1,8,16,10,11,183
2.018395,0.001687,1,8,16,11,12,187
2.18436,-0.002353,1,8,16,12,13,191
2.494155,0.002328,1,8,16,13,14,195
3.923105,0.00343,1,8,16,14,15,199
4.037756,-3.140457,1,9,1,2,3,203
2.576835,-3.13047,1,9,1,3,4,207
2.070023,-3.141382,1,9,1,4,5,211
2.183126,3.138733,1,9,1,5,6,215
2.604337,3.141141,1,9,1,6,7,219
4.145146,3.141379,1,9,1,7,8,223
3.805209,0.004923,1,9,1,10,11,227
2.409302,0.015657,1,9,1,11,12,231
2.156943,0.010789,1,9,1,12,13,235
2.101246,0.012466,1,9,1,13,14,239
2.410151,0.015548,1,9,1,14,15,243
4.116453,0.007009,1,9,1,15,16,247
4.207233,3.140714,1,10,2,3,4,251
2.436645,-3.137986,1,10,2,4,5,255
2.213163,-3.132182,1,10,2,5,6,3
2.130844,3.140213,1,10,2,6,7,7
2.550568,-3.140731,1,10,2,7,8,11
3.864971,-3.13744,1,10,2,8,9,15
4.092665,0.000839,1,10,2,11,12,19
2.577793,0.011371,1,10,2,12,13,23
2.102126,0.012757,1,10,2,13,14,27
1.990617,0.016538,1,10,2,14,15,31
2.522338,0.012852,1,10,2,15,16,35
4.147341,-0.013671,1,11,3,1,2,39
3.815208,-3.137035,1,11,3,4,5,43
2.690823,-3.133135,1,11,3,5,6,47
2.213641,-3.132328,1,11,3,6,7,51
2.238591,3.137732,1,11,3,7,8,55
2.467604,-3.127525,1,11,3,8,9,59
4.200507,3.14098,1,11,3,9,10,63
4.003589,-0.004983,1,11,3,12,13,67
2.490592,0.002405,1,11,3,13,14,71
1.962124,0.00301,1,11,3,14,15,75
2.128268,-0.001359,1,11,3,15,16,79
2.49277,0.002,1,12,4,1,2,83
3.977974,0.002148,1,12,4,2,3,87
4.477517,3.137459,1,12,4,5,6,91
2.659022,3.140215,1,12,4,6,7,95
2.269237,-3.134059,1,12,4,7,8,99
2.127777,3.140111,1,12,4,8,9,103
2.604337,3.141141,1,12,4,9,10,107
3.919526,-3.138472,1,12,4,10,11,111
4.117229,0.007178,1,12,4,13,14,115
2.324238,0.006161,1,12,4,14,15,119
2.12495,-0.00123,1,12,4,15,16,123
2.126758,-0.001231,1,13,5,1,2,127
2.547619,0.001014,1,13,5,2,3,131
4.476172,-0.003893,1,13,5,3,4,135
4.198434,3.140962,1,13,5,6,7,139
2.579478,-3.13057,1,13,5,7,8,143
2.128738,3.140177,1,13,5,8,9,147
2.156954,-3.130714,1,13,5,9,10,151
2.37858,-3.136632,1,13,5,10,11,155
4.031532,-3.13997,1,13,5,11,12,159
3.975544,0.00245,1,13,5,14,15,163
2.492899,0.002131,1,13,5,15,16,167
2.101454,0.01264,1,14,6,1,2,171
2.072418,5.9e-05,1,14,6,2,3,175
2.606102,-0.000354,1,14,6,3,4,179
3.751489,0.005948,1,14,6,4,5,183
3.976255,-3.139153,1,14,6,7,8,187
2.466421,-3.127275,1,14,6,8,9,191
2.127898,3.140332,1,14,6,9,10,195
2.01552,-3.13974,1,14,6,10,11,199
2.433853,-3.137655,1,14,6,11,12,203
4.086856,-3.140498,1,14,6,12,13,207
4.031912,0.001707,1,14,6,15,16,211
2.461155,-0.007484,1,15,7,1,2,215
2.017161,0.001989,1,15,7,2,3,219
2.156742,0.011556,1,15,7,3,4,223
2.323694,0.0068,1,15,7,4,5,227
4.027672,0.002122,1,15,7,5,6,231
3.887632,3.138566,1,15,7,8,9,235
2.544283,-3.139971,1,15,7,9,10,239
2.01517,-3.139641,1,15,7,10,11,243
2.046417,-3.126975,1,15,7,11,12,247
2.604082,-3.141367,1,15,7,12,13,251
4.02981,-3.139589,1,15,7,13,14,255
3.970899,0.003184,1,16,8,1,2,3
2.432585,0.004233,1,16,8,2,3,7
2.155273,0.011368,1,16,8,3,4,11
1.95876,0.003596,1,16,8,4,5,15
2.518099,0.01321,1,16,8,5,6,19
4.03017,0.001999,1,16,8,6,7,23
4.191639,-3.141555,1,16,8,9,10,27
2.432254,-3.137397,1,16,8,10,11,31
2.068324,-3.140845,1,16,8,11,12,35
2.238034,3.138103,1,16,8,12,13,39
2.491283,-3.139023,1,16,8,13,14,43
3.974369,-3.138814,1,16,8,14,15,47
3.973209,0.002347,1,1,9,2,3,51
2.547702,0.000788,1,1,9,3,4,55
1.989343,0.016304,1,1,9,4,5,59
2.157045,0.010832,1,1,9,5,6,63
2.545238,0.001109,1,1,9,6,7,67
4.058522,0.008058,1,1,9,7,8,71
3.863861,-3.137783,1,1,9,10,11,75
2.4643,-3.127453,1,1,9,11,12,79
2.236583,3.137691,1,1,9,12,13,83
2.100703,-3.128933,1,1,9,13,14,87
2.489247,-3.139248,1,1,9,14,15,91
4.114134,-3.13424,1,1,9,15,16,95
4.139931,0.000526,1,2,10,3,4,99
2.349553,-0.005907,1,2,10,4,5,103
2.180667,-0.002172,1,2,10,5,6,107
2.12556,-0.000888,1,2,10,6,7,111
2.434276,0.003838,1,2,10,7,8,115
3.749851,0.00615,1,2,10,8,9,119
4.173647,-3.135017,1,2,10,11,12,123
2.660136,3.140506,1,2,10,12,13,127
2.10271,-3.128671,1,2,10,13,14,131
2.07235,-3.141308,1,2,10,14,15,135
2.547308,-3.140348,1,2,10,15,16,139
4.169531,3.134798,1,3,11,1,2,143
3.80927,0.004776,1,3,11,4,5,147
2.634055,0.00989,1,3,11,5,6,151
2.182983,-0.002408,1,3,11,6,7,155
2.014526,0.001835,1,3,11,7,8,159
2.380179,0.004969,1,3,11,8,9,163
4.168277,0.006779,1,3,11,9,10,167
4.08484,-3.140517,1,3,11,12,13,171
2.489949,-3.138995,1,3,11,13,14,175
2.070587,-3.141307,1,3,11,14,15,179
2.099332,-3.128585,1,3,11,15,16,183
2.546147,-3.140503,1,4,12,1,2,187
4.027425,-3.139781,1,4,12,2,3,191
4.456268,0.002388,1,4,12,5,6,195
2.659609,-0.001434,1,4,12,6,7,199
2.014951,0.0016,1,4,12,7,8,203
1.903454,0.004899,1,4,12,8,9,207
2.548397,0.000863,1,4,12,9,10,211
3.808751,0.004739,1,4,12,10,11,215
4.117113,3.135078,1,4,12,13,14,219
2.464196,-3.127406,1,4,12,14,15,223
2.07194,3.14153,1,4,12,15,16,227
2.212372,-3.132163,1,5,13,1,2,231
2.634749,-3.131806,1,5,13,2,3,235
4.532412,3.137168,1,5,13,3,4,239
4.114869,0.007343,1,5,13,6,7,243
2.381444,0.004851,1,5,13,7,8,247
1.905746,0.004789,1,5,13,8,9,251
2.156589,0.011067,1,5,13,9,10,255
2.324064,0.006433,1,5,13,10,11,3
3.97448,0.002464,1,5,13,11,12,7
3.921296,-3.138407,1,5,13,14,15,11
2.520193,-3.12874,1,5,13,15,16,15
2.182327,3.139424,1,6,14,1,2,19
2.182902,3.139321,1,6,14,2,3,23
2.687878,-3.132673,1,6,14,3,4,27
3.83029,3.139276,1,6,14,4,5,31
3.917006,0.003647,1,6,14,7,8,35
2.266681,0.008222,1,6,14,8,9,39
2.155749,0.011312,1,6,14,9,10,43
1.933451,0.018697,1,6,14,10,11,47
2.382621,0.004869,1,6,14,11,12,51
4.002366,-0.004832,1,6,14,12,13,55
4.087049,-3.140456,1,6,14,15,16,59
2.551216,-3.141014,1,7,15,1,2,63
2.159268,-3.130772,1,7,15,2,3,67
2.21385,-3.132244,1,7,15,3,4,71
2.38019,-3.136534,1,7,15,4,5,75
4.061692,-3.133174,1,7,15,5,6,79
3.809182,0.005181,1,7,15,8,9,83
2.519341,0.013229,1,7,15,9,10,87
1.930407,-0.010016,1,7,15,10,11,91
2.015455,0.002079,1,7,15,11,12,95
2.547105,0.001428,1,7,15,12,13,99
3.978089,0.002684,1,7,15,13,14,103
4.089201,-3.140664,1,8,16,1,2,107
2.548997,-3.140518,1,8,16,2,3,111
2.183476,3.139217,1,8,16,3,4,115
2.015615,-3.139697,1,8,16,4,5,119
2.547093,-3.140254,1,8,16,5,6,123
4.089413,-3.140532,1,8,16,6,7,127
4.142519,0.000492,1,8,16,9,10,131
2.325748,0.006574,1,8,16,10,11,135
2.016431,0.001918,1,8,16,11,12,139
2.158253,0.01125,1,8,16,12,13,143
2.492947,0.002489,1,8,16,13,14,147
4.034284,0.00181,1,8,16,14,15,151
4.030263,-3.139998,1,9,1,2,3,155
2.604925,3.141174,1,9,1,3,4,159
2.072115,3.141436,1,9,1,4,5,163
2.212049,-3.132379,1,9,1,5,6,167
2.547367,-3.140753,1,9,1,6,7,171
4.117557,-3.134598,1,9,1,7,8,175
3.80503,0.004881,1,9,1,10,11,179
2.410684,0.015491,1,9,1,11,12,183
2.182151,-0.002836,1,9,1,12,13,187
2.128708,-0.001684,1,9,1,13,14,191
2.410468,0.015496,1,9,1,14,15,195
4.084397,0.000724,1,9,1,15,16,199
4.201654,3.141055,1,10,2,3,4,203
2.437619,-3.138052,1,10,2,4,5,207
2.241003,3.137763,1,10,2,5,6,211
2.156701,-3.130394,1,10,2,6,7,215
2.492044,-3.139174,1,10,2,7,8,219
3.835548,3.138978,1,10,2,8,9,223
4.089201,0.000929,1,10,2,11,12,227
2.604044,-4.2e-05,1,10,2,12,13,231
2.127818,-0.001124,1,10,2,13,14,235
2.014981,0.001867,1,10,2,14,15,239
2.494143,0.002239,1,10,2,15,16,243
4.086675,-0.012874,1,11,3,1,2,247
3.840946,3.138454,1,11,3,4,5,251
2.690937,-3.133183,1,11,3,5,6,255
2.214537,-3.132305,1,11,3,6,7,3
2.127318,3.140257,1,11,3,7,8,7
2.435969,-3.13815,1,11,3,8,9,11
4.256896,3.140139,1,11,3,9,10,15
4.033504,0.001551,1,11,3,12,13,19
2.465632,0.0142,1,11,3,13,14,23
2.015236,0.001726,1,11,3,14,15,27
2.127608,-0.001298,1,11,3,15,16,31
2.492336,0.002099,1,12,4,1,2,35
4.004077,-0.005214,1,12,4,2,3,39
4.5579,-3.1402,1,12,4,5,6,43
2.713152,3.139167,1,12,4,6,7,47
2.158749,-3.131073,1,12,4,7,8,51
2.072953,3.141459,1,12,4,8,9,55
2.605733,3.141112,1,12,4,9,10,59
3.924561,-3.138766,1,12,4,10,11,63
3.980782,0.00193,1,12,4,13,14,67
2.438111,0.003126,1,12,4,14,15,71
2.102649,0.012385,1,12,4,15,16,75
2.101918,0.012584,1,13,5,1,2,79
2.545692,0.001099,1,13,5,2,3,83
4.505932,0.001897,1,13,5,3,4,87
4.140046,-3.141382,1,13,5,6,7,91
2.49147,-3.139296,1,13,5,7,8,95
2.016477,-3.140079,1,13,5,8,9,99
2.214224,-3.132432,1,13,5,9,10,103
2.352729,-3.124085,1,13,5,10,11,107
4.029752,-3.139857,1,13,5,11,12,111
3.867516,0.003893,1,13,5,14,15,115
2.491798,0.002245,1,13,5,15,16,119
2.073793,-0.000111,1,14,6,1,2,123
2.132801,-0.001834,1,14,6,2,3,127
2.635456,0.009772,1,14,6,3,4,131
3.777303,-0.002004,1,14,6,4,5,135
3.976087,-3.139106,1,14,6,7,8,139
2.406624,3.134284,1,14,6,8,9,143
2.21257,-3.132168,1,14,6,9,10,147
1.956756,-3.137898,1,14,6,10,11,151
2.434493,-3.137759,1,14,6,11,12,155
4.084303,-3.140465,1,14,6,12,13,159
4.001576,0.009252,1,14,6,15,16,163
2.434998,0.00436,1,15,7,1,2,167
2.098271,-0.013272,1,15,7,2,3,171
2.15416,0.011754,1,15,7,3,4,175
2.322144,0.006881,1,15,7,4,5,179
3.974033,0.002873,1,15,7,5,6,183
3.863646,-3.137153,1,15,7,8,9,187
2.601757,-3.141319,1,15,7,9,10,191
1.961193,-3.138243,1,15,7,10,11,195
2.07126,-3.1411,1,15,7,11,12,199
2.603714,-3.141494,1,15,7,12,13,203
4.032481,-3.139759,1,15,7,13,14,207
4.005735,0.00942,1,16,8,1,2,211
2.46319,0.014925,1,16,8,2,3,215
2.157868,0.011259,1,16,8,3,4,219
1.930144,-0.010053,1,16,8,4,5,223
2.437425,0.003724,1,16,8,5,6,227
4.02805,0.002206,1,16,8,6,7,231
4.224799,-3.135531,1,16,8,9,10,235
2.376939,-3.136148,1,16,8,10,11,239
2.043803,-3.126593,1,16,8,11,12,243
2.268887,-3.133602,1,16,8,12,13,247
2.489528,-3.138806,1,16,8,13,14,251
4.056075,3.136294,1,16,8,14,15,255
3.973209,0.002347,1,1,9,2,3,3
2.545441,0.000926,1,1,9,3,4,7
1.932905,0.018443,1,1,9,4,5,11
2.07085,0.000145,1,1,9,5,6,15
2.521069,0.012655,1,1,9,6,7,19
4.032194,0.001345,1,1,9,7,8,23
3.864551,-3.137793,1,1,9,10,11,27
2.464856,-3.12742,1,1,9,11,12,31
2.267138,-3.133785,1,1,9,12,13,35
2.071667,3.141582,1,1,9,13,14,39
2.545226,-3.140573,1,1,9,14,15,43
4.14353,-3.141561,1,1,9,15,16,47
4.141759,0.000413,1,2,10,3,4,51
2.353393,0.017761,1,2,10,4,5,55
2.126229,-0.00086,1,2,10,5,6,59
2.070705,0.000507,1,2,10,6,7,63
2.437631,0.00363,1,2,10,7,8,67
3.775867,-0.001581,1,2,10,8,9,71
4.169805,-3.134654,1,2,10,11,12,75
2.627046,3.130842,1,2,10,12,13,79
2.126039,3.140738,1,2,10,13,14,83
2.100467,-3.128524,1,2,10,14,15,87
2.522006,-3.128689,1,2,10,15,16,91
4.171354,3.134596,1,3,11,1,2,95
3.804566,0.005111,1,3,11,4,5,99
2.576521,0.011353,1,3,11,5,6,103
2.182778,-0.002493,1,3,11,6,7,107
2.045321,0.014647,1,3,11,7,8,111
2.377664,0.005295,1,3,11,8,9,115
4.113826,0.007626,1,3,11,9,10,119
4.086837,-3.140588,1,3,11,12,13,123
2.493697,-3.139344,1,3,11,13,14,127
2.128469,3.140318,1,3,11,14,15,131
2.129791,3.140195,1,3,11,15,16,135
2.580376,-3.130769,1,4,12,1,2,139
4.035458,-3.140202,1,4,12,2,3,143
4.454277,0.002413,1,4,12,5,6,147
2.635083,0.009645,1,4,12,6,7,151
2.017188,0.001405,1,4,12,7,8,155
1.962032,0.002968,1,4,12,8,9,159
2.548062,0.000915,1,4,12,9,10,163
3.91866,0.003177,1,4,12,10,11,167
4.031683,-3.140107,1,4,12,13,14,171
2.494658,-3.139679,1,4,12,14,15,175
2.12995,3.139922,1,4,12,15,16,179
2.211582,-3.132144,1,5,13,1,2,183
2.602649,3.141579,1,5,13,2,3,187
4.533413,3.137111,1,5,13,3,4,191
4.14392,0.000116,1,5,13,6,7,195
2.379441,0.005031,1,5,13,7,8,199
1.904555,0.004823,1,5,13,8,9,203
2.101751,0.012767,1,5,13,9,10,207
2.268662,0.007816,1,5,13,10,11,211
3.975377,0.002497,1,5,13,11,12,215
4.031893,-3.139975,1,5,13,14,15,219
2.491927,-3.139216,1,5,13,15,16,223
2.183199,3.139358,1,6,14,1,2,227
2.184154,3.139156,1,6,14,2,3,231
2.691912,-3.133113,1,6,14,3,4,235
3.865699,-3.137271,1,6,14,4,5,239
3.923068,0.003251,1,6,14,7,8,243
2.272508,0.007635,1,6,14,8,9,247
2.073725,0.000115,1,6,14,9,10,251
1.904994,0.004945,1,6,14,10,11,255
2.379978,0.005063,1,6,14,11,12,3
4.032462,0.001745,1,6,14,12,13,7
4.032652,-3.139806,1,6,14,15,16,11
2.546482,-3.140555,1,7,15,1,2,15
2.12969,3.140152,1,7,15,2,3,19
2.21435,-3.132211,1,7,15,3,4,23
2.349023,3.135653,1,7,15,4,5,27
4.031761,-3.139749,1,7,15,5,6,31
3.862084,0.004416,1,7,15,8,9,35
2.520454,0.013116,1,7,15,9,10,39
1.934924,0.018701,1,7,15,10,11,43
1.988167,0.016962,1,7,15,11,12,47
2.547225,0.00147,1,7,15,12,13,51
4.003946,0.009444,1,7,15,13,14,55
4.091741,-3.140787,1,8,16,1,2,59
2.494037,-3.139307,1,8,16,2,3,63
2.184729,3.139052,1,8,16,3,4,67
1.959202,-3.137964,1,8,16,4,5,71
2.49426,-3.139311,1,8,16,5,6,75
4.176259,-3.135051,1,8,16,6,7,79
4.149149,0.000227,1,8,16,9,10,83
2.327905,0.0063,1,8,16,10,11,87
1.991254,0.016655,1,8,16,11,12,91
2.216623,0.009282,1,8,16,12,13,95
2.439375,0.003592,1,8,16,13,14,99
3.980017,0.002524,1,8,16,14,15,103
4.035439,-3.140291,1,9,1,2,3,107
2.603761,3.141198,1,9,1,3,4,111
1.963139,-3.138969,1,9,1,4,5,115
2.130882,3.139718,1,9,1,5,6,119
2.579332,-3.130792,1,9,1,6,7,123
4.120113,-3.134721,1,9,1,7,8,127
3.868151,0.003615,1,9,1,10,11,131
2.437996,0.003084,1,9,1,11,12,135
2.186229,-0.003116,1,9,1,12,13,139
2.047273,0.014057,1,9,1,13,14,143
2.493215,0.00199,1,9,1,14,15,147
4.088391,0.000581,1,9,1,15,16,151
4.196266,3.141348,1,10,2,3,4,155
2.381343,-3.136695,1,10,2,4,5,159
2.126499,3.140592,1,10,2,5,6,163
2.157178,-3.130451,1,10,2,6,7,167
2.579163,-3.13034,1,10,2,7,8,171
3.864444,-3.137478,1,10,2,8,9,175
4.11967,0.00737,1,10,2,11,12,179
2.604399,-5e-06,1,10,2,12,13,183
2.016061,0.001839,1,10,2,13,14,187
2.100635,0.012885,1,10,2,14,15,191
2.466201,0.014322,1,10,2,15,16,195
4.11421,-0.006298,1,11,3,1,2,199
3.864099,-3.137473,1,11,3,4,5,203
2.631593,-3.131607,1,11,3,5,6,207
2.21099,-3.132129,1,11,3,6,7,211
2.211572,-3.132233,1,11,3,7,8,215
2.49147,-3.139296,1,11,3,8,9,219
4.175295,-3.135173,1,11,3,9,10,223
4.033694,0.001594,1,11,3,12,13,227
2.4103,0.015858,1,11,3,13,14,231
2.1295,-0.001435,1,11,3,14,15,235
2.046398,0.014439,1,11,3,15,16,239
2.436931,0.003287,1,12,4,1,2,243
3.974273,0.002333,1,12,4,2,3,247
4.510722,-3.139933,1,12,4,5,6,251
2.690062,-3.133389,1,12,4,6,7,255
2.239769,3.137524,1,12,4,7,8,3
2.157907,-3.130827,1,12,4,8,9,7
2.546015,-3.140634,1,12,4,9,10,11
3.977431,-3.139482,1,12,4,10,11,15
3.976216,0.002261,1,12,4,13,14,19
2.493098,0.001948,1,12,4,14,15,23
2.016287,0.001429,1,12,4,15,16,27
2.070947,0.000187,1,13,5,1,2,31
2.521638,0.012687,1,13,5,2,3,35
4.476971,-0.003903,1,13,5,3,4,39
4.19658,3.141075,1,13,5,6,7,43
2.491575,-3.139343,1,13,5,7,8,47
2.070033,-3.141292,1,13,5,8,9,51
2.125999,3.14038,1,13,5,9,10,55
2.348273,3.135536,1,13,5,10,11,59
4.030452,-3.139956,1,13,5,11,12,63
3.942835,-0.004045,1,13,5,14,15,67
2.434138,0.003618,1,13,5,15,16,71
2.015406,0.001632,1,14,6,1,2,75
2.070675,0.000239,1,14,6,2,3,79
2.633944,0.009937,1,14,6,3,4,83
3.804572,-0.009641,1,14,6,4,5,87
3.944947,3.137519,1,14,6,7,8,91
2.377263,-3.13611,1,14,6,8,9,95
2.10101,-3.128717,1,14,6,9,10,99
1.959082,-3.138274,1,14,6,10,11,103
2.433624,-3.13774,1,14,6,11,12,107
4.082884,-3.140267,1,14,6,12,13,111
3.999829,0.009454,1,14,6,15,16,115
2.460924,-0.007569,1,15,7,1,2,119
2.014669,0.002323,1,15,7,2,3,123
2.155405,0.011678,1,15,7,3,4,127
2.23754,-0.003433,1,15,7,4,5,131
3.917539,0.003685,1,15,7,5,6,135
3.889002,3.138457,1,15,7,8,9,139
2.54665,-3.140155,1,15,7,9,10,143
1.958512,-3.137856,1,15,7,10,11,147
2.04534,-3.126767,1,15,7,11,12,151
2.603836,-3.141451,1,15,7,12,13,155
4.03017,-3.139594,1,15,7,13,14,159
3.999905,0.009811,1,16,8,1,2,163
2.434105,0.0042,1,16,8,2,3,167
2.126329,-0.000818,1,16,8,3,4,171
1.880304,0.020729,1,16,8,4,5,175
2.464025,-0.008308,1,16,8,5,6,179
4.11402,0.007668,1,16,8,6,7,183
4.171627,-3.134857,1,16,8,9,10,187
2.380716,-3.136591,1,16,8,10,11,191
2.072623,-3.14136,1,16,8,11,12,195
2.295271,3.136764,1,16,8,12,13,199
2.546064,-3.140277,1,16,8,13,14,203
4.034625,-3.139877,1,16,8,14,15,207
3.977955,0.002058,1,1,9,2,3,211
2.549284,0.000665,1,1,9,3,4,215
1.904966,0.004677,1,1,9,4,5,219
2.129098,-0.001604,1,1,9,5,6,223
2.603554,-0.000211,1,1,9,6,7,227
4.087508,0.000727,1,1,9,7,8,231
3.919176,-3.138468,1,1,9,10,11,235
2.436828,-3.138258,1,1,9,11,12,239
2.294914,3.136369,1,1,9,12,13,243
2.15944,-3.130956,1,1,9,13,14,247
2.493543,-3.139655,1,1,9,14,15,251
4.172272,-3.135313,1,1,9,15,16,255
4.147841,0.000199,1,2,10,3,4,3
2.270797,0.007811,1,2,10,4,5,7
2.100744,0.013017,1,2,10,5,6,11
2.185212,-0.002598,1,2,10,6,7,15
2.493275,0.002437,1,2,10,7,8,19
3.831495,-0.002289,1,2,10,8,9,23
4.202781,3.141041,1,2,10,11,12,27
2.634774,-3.131627,1,2,10,12,13,31
2.184143,3.139066,1,2,10,13,14,35
2.128109,3.140506,1,2,10,14,15,39
2.579394,-3.130345,1,2,10,15,16,43
4.174141,3.134515,1,3,11,1,2,47
3.777658,-0.00192,1,3,11,4,5,51
2.574948,0.011654,1,3,11,5,6,55
2.156306,0.011119,1,3,11,6,7,59
2.070967,0.000366,1,3,11,7,8,63
2.40721,0.016151,1,3,11,8,9,67
4.167866,-0.006728,1,3,11,9,10,71
4.08557,-3.140526,1,3,11,12,13,75
2.547176,-3.14048,1,3,11,13,14,79
2.130362,3.14018,1,3,11,14,15,83
2.130352,3.140091,1,3,11,15,16,87
2.436175,-3.138244,1,4,12,1,2,91
4.031362,-3.139923,1,4,12,2,3,95
4.452916,0.002564,1,4,12,5,6,99
2.635653,0.009499,1,4,12,6,7,103
2.103956,0.012262,1,4,12,7,8,107
1.993493,0.015877,1,4,12,8,9,111
2.526435,0.012181,1,4,12,9,10,115
3.990358,0.00153,1,4,12,10,11,119
4.092586,-3.141112,1,4,12,13,14,123
2.496314,-3.139849,1,4,12,14,15,127
2.131846,3.139784,1,4,12,15,16,131
2.072973,-3.141548,1,5,13,1,2,135
2.576981,-3.130249,1,5,13,2,3,139
4.53723,3.136931,1,5,13,3,4,143
4.200507,-0.000612,1,5,13,6,7,147
2.492571,0.002183,1,5,13,7,8,151
1.962992,0.002897,1,5,13,8,9,155
2.072515,0.000101,1,5,13,9,10,159
2.327258,0.006135,1,5,13,10,11,163
3.980296,0.002161,1,5,13,11,12,167
4.003042,3.136572,1,5,13,14,15,171
2.491037,-3.139197,1,5,13,15,16,175
2.046707,-3.126848,1,6,14,1,2,179
2.157675,-3.130329,1,6,14,2,3,183
2.717557,3.139348,1,6,14,3,4,187
3.833512,3.139097,1,6,14,4,5,191
3.919601,0.003478,1,6,14,7,8,195
2.412886,0.015801,1,6,14,8,9,199
2.074632,-8.8e-05,1,6,14,9,10,203
1.962503,0.003269,1,6,14,10,11,207
2.381679,0.005025,1,6,14,11,12,211
4.004135,-0.004946,1,6,14,12,13,215
4.091029,-3.140688,1,6,14,15,16,219
2.466594,-3.127637,1,7,15,1,2,223
2.127238,3.140394,1,7,15,2,3,227
2.213663,-3.132149,1,7,15,3,4,231
2.298663,-3.122212,1,7,15,4,5,235
4.008523,-3.132568,1,7,15,5,6,239
3.83793,-0.002737,1,7,15,8,9,243
2.492724,0.002494,1,7,15,9,10,247
1.961543,0.00334,1,7,15,10,11,251
1.991516,0.016603,1,7,15,11,12,255
2.549921,0.001144,1,7,15,12,13,3
4.0318,0.002022,1,7,15,13,14,7
4.027104,-3.139598,1,8,16,1,2,11
2.491166,-3.139065,1,8,16,2,3,15
2.183189,3.139269,1,8,16,3,4,19
1.95694,-3.137813,1,8,16,4,5,23
2.5219,-3.128642,1,8,16,5,6,27
4.17055,-3.134664,1,8,16,6,7,31
4.143434,0.000436,1,8,16,9,10,35
2.324709,0.006598,1,8,16,10,11,39
2.015275,0.002083,1,8,16,11,12,43
2.214256,0.009429,1,8,16,12,13,47
2.464903,0.01453,1,8,16,13,14,51
3.973323,0.002883,1,8,16,14,15,55
4.031323,-3.140102,1,9,1,2,3,59
2.600998,3.141434,1,9,1,3,4,63
1.958106,-3.138382,1,9,1,4,5,67
2.18593,3.138439,1,9,1,5,6,71
2.713381,3.139073,1,9,1,6,7,75
4.255375,3.140159,1,9,1,7,8,79
3.917611,0.003191,1,9,1,10,11,83
2.438111,0.003126,1,9,1,11,12,87
2.240738,-0.004361,1,9,1,12,13,91
2.072856,-0.000176,1,9,1,13,14,95
2.49298,0.001906,1,9,1,14,15,99
4.093105,0.000339,1,9,1,15,16,103
4.202385,3.140956,1,10,2,3,4,107
2.324272,-3.135164,1,10,2,4,5,111
2.215236,-3.132277,1,10,2,5,6,115
2.324283,-3.135075,1,10,2,6,7,119
2.548662,-3.140466,1,10,2,7,8,123
3.944095,3.137665,1,10,2,8,9,127
4.143785,0.000342,1,10,2,11,12,131
2.603811,-3.7e-05,1,10,2,12,13,135
2.102779,0.012696,1,10,2,13,14,139
2.100171,0.012942,1,10,2,14,15,143
2.489949,0.002598,1,10,2,15,16,147
4.027398,-0.012125,1,11,3,1,2,151
3.864262,-3.13752,1,11,3,4,5,155
2.6621,3.140063,1,11,3,5,6,159
2.381007,-3.136821,1,11,3,6,7,163
2.214141,-3.132296,1,11,3,7,8,167
2.491247,-3.139291,1,11,3,8,9,171
4.33607,3.132862,1,11,3,9,10,175
4.032973,0.001603,1,11,3,12,13,179
2.492583,0.002273,1,11,3,13,14,183
2.014526,0.001835,1,11,3,14,15,187
2.100062,0.01281,1,11,3,15,16,191
2.411444,0.015519,1,12,4,1,2,195
3.975861,0.002266,1,12,4,2,3,199
4.518138,-3.140246,1,12,4,5,6,203
2.776444,3.137578,1,12,4,6,7,207
2.215974,-3.132744,1,12,4,7,8,211
2.131635,3.139609,1,12,4,8,9,215
2.577799,3.130733,1,12,4,9,10,219
4.039734,-3.140529,1,12,4,10,11,223
4.011105,0.008496,1,12,4,13,14,227
2.413146,0.015301,1,12,4,14,15,231
2.100594,0.012528,1,12,4,15,16,235
2.015766,0.001623,1,13,5,1,2,239
2.577974,0.011009,1,13,5,2,3,243
4.507373,0.002014,1,13,5,3,4,247
4.2505,3.140489,1,13,5,6,7,251
2.518725,-3.128753,1,13,5,7,8,255
2.070578,-3.141396,1,13,5,8,9,3
2.125619,3.14039,1,13,5,9,10,7
2.43447,-3.137938,1,13,5,10,11,11
4.029373,-3.139941,1,13,5,11,12,15
3.915367,0.003357,1,13,5,14,15,19
2.490475,0.002363,1,13,5,15,16,23
2.045484,0.014463,1,14,6,1,2,27
2.127978,-0.001397,1,14,6,2,3,31
2.631704,0.009938,1,14,6,3,4,35
3.776984,-0.00191,1,14,6,4,5,39
4.033163,-3.139947,1,14,6,7,8,43
2.436427,-3.137981,1,14,6,8,9,47
2.157654,-3.130507,1,14,6,9,10,51
2.016411,-3.139853,1,14,6,10,11,55
2.435248,-3.13782,1,14,6,11,12,59
4.088105,-3.140649,1,14,6,12,13,63
4.031931,0.001796,1,14,6,15,16,67
2.37952,0.005656,1,15,7,1,2,71
2.069538,0.00085,1,15,7,2,3,75
2.154683,-0.014592,1,15,7,3,4,79
2.293761,-0.00457,1,15,7,4,5,83
3.976667,0.002703,1,15,7,5,6,87
3.917374,-3.137861,1,15,7,8,9,91
2.576679,-3.12993,1,15,7,9,10,95
2.01589,-3.13966,1,15,7,10,11,99
2.044158,-3.126692,1,15,7,11,12,103
2.602319,-3.141465,1,15,7,12,13,107
4.089971,-3.140494,1,15,7,13,14,111
4.032369,0.002149,1,16,8,1,2,115
2.492631,0.00263,1,16,8,2,3,119
2.130102,-0.001182,1,16,8,3,4,123
1.905433,0.005067,1,16,8,4,5,127
2.463815,0.014643,1,16,8,5,6,131
4.086703,0.001231,1,16,8,6,7,135
4.285491,-3.136549,1,16,8,9,10,139
2.437195,-3.137953,1,16,8,10,11,143
2.069606,-3.140968,1,16,8,11,12,147
2.26798,-3.133536,1,16,8,12,13,151
2.579176,-3.13025,1,16,8,13,14,155
4.005397,3.136675,1,16,8,14,15,159
3.981494,0.00192,1,1,9,2,3,163
2.548145,0.000689,1,1,9,3,4,167
1.906652,0.00445,1,1,9,4,5,171
2.101898,0.012405,1,1,9,5,6,175
2.548157,0.000778,1,1,9,6,7,179
4.176551,0.006179,1,1,9,7,8,183
3.981662,-3.139719,1,1,9,10,11,187
2.496432,-3.139807,1,1,9,11,12,191
2.242542,3.137188,1,1,9,12,13,195
2.159725,-3.131008,1,1,9,13,14,199
2.550544,-3.14091,1,1,9,14,15,203
4.175255,-3.135352,1,1,9,15,16,207
4.145441,0.000275,1,2,10,3,4,211
2.32542,0.006447,1,2,10,4,5,215
2.158141,0.011118,1,2,10,5,6,219
2.184143,-0.002526,1,2,10,6,7,223
2.465888,0.014464,1,2,10,7,8,227
3.837587,-0.002732,1,2,10,8,9,231
4.147996,-3.14153,1,2,10,11,12,235
2.634899,-3.131585,1,2,10,12,13,239
2.187837,3.138796,1,2,10,13,14,243
2.128859,3.140398,1,2,10,14,15,247
2.606826,3.141403,1,2,10,15,16,251
4.255685,3.127126,1,3,11,1,2,255
3.81065,0.004846,1,3,11,4,5,3
2.580863,0.010993,1,3,11,5,6,7
2.270572,0.007637,1,3,11,6,7,11
2.12969,-0.00144,1,3,11,7,8,15
2.378915,0.005087,1,3,11,8,9,19
4.286599,0.004851,1,3,11,9,10,23
4.091721,-3.140876,1,3,11,12,13,27
2.551024,-3.140741,1,3,11,13,14,31
2.073627,-3.14152,1,3,11,14,15,35
2.104274,-3.129025,1,3,11,15,16,39
2.496643,-3.139901,1,4,12,1,2,43
4.037414,-3.140363,1,4,12,2,3,47
4.456058,0.002346,1,4,12,5,6,51
2.774746,-0.003712,1,4,12,6,7,55
2.16002,0.010623,1,4,12,7,8,59
2.015131,0.001595,1,4,12,8,9,63
2.494987,0.001862,1,4,12,9,10,67
3.979228,0.002176,1,4,12,10,11,71
4.088431,-3.140833,1,4,12,13,14,75
2.493555,-3.139565,1,4,12,14,15,79
2.103224,-3.129132,1,4,12,15,16,83
2.127798,3.14029,1,5,13,1,2,87
2.605305,3.14139,1,5,13,2,3,91
4.537252,3.137021,1,5,13,3,4,95
4.203868,-0.000745,1,5,13,6,7,99
2.492126,0.002193,1,5,13,7,8,103
1.989624,0.01643,1,5,13,8,9,107
2.07389,-6.9e-05,1,5,13,9,10,111
2.409337,0.015925,1,5,13,10,11,115
3.974686,0.002596,1,5,13,11,12,119
4.00182,3.136723,1,5,13,14,15,123
2.549428,-3.140707,1,5,13,15,16,127
2.103264,-3.128775,1,6,14,1,2,131
2.156519,-3.1303,1,6,14,2,3,135
2.689192,-3.132744,1,6,14,3,4,139
3.835548,3.138978,1,6,14,4,5,143
4.03087,0.0019,1,6,14,7,8,147
2.354222,0.017652,1,6,14,8,9,151
2.071522,0.000351,1,6,14,9,10,155
1.991497,0.016425,1,6,14,10,11,159
2.382094,0.004926,1,6,14,11,12,163
4.002762,-0.004659,1,6,14,12,13,167
4.087567,-3.140597,1,6,14,15,16,171
2.462565,3.133093,1,7,15,1,2,175
2.128078,3.140238,1,7,15,2,3,179
2.184821,3.139005,1,7,15,3,4,183
2.351531,3.135506,1,7,15,4,5,187
4.031951,-3.139707,1,7,15,5,6,191
3.887613,-0.003116,1,7,15,8,9,195
2.493381,0.00239,1,7,15,9,10,199
2.015009,0.002135,1,7,15,10,11,203
1.991244,0.016566,1,7,15,11,12,207
2.546997,0.001475,1,7,15,12,13,211
4.031079,0.002032,1,7,15,13,14,215
4.09228,-3.140839,1,8,16,1,2,219
2.551361,-3.140793,1,8,16,2,3,223
2.215934,-3.13225,1,8,16,3,4,227
1.961017,-3.138238,1,8,16,4,5,231
2.490733,-3.138967,1,8,16,5,6,235
4.034284,-3.139783,1,8,16,6,7,239
4.256238,-0.000997,1,8,16,9,10,243
2.438297,0.003705,1,8,16,10,11,247
2.01848,0.00164,1,8,16,11,12,251
2.214663,0.009509,1,8,16,12,13,255
2.493709,0.002338,1,8,16,13,14,3
3.923769,0.003241,1,8,16,14,15,7
4.002119,3.13645,1,9,1,2,3,11
2.604116,3.141235,1,9,1,3,4,15
1.96062,-3.138675,1,9,1,4,5,19
2.129289,3.139983,1,9,1,5,6,23
2.602721,3.141264,1,9,1,6,7,27
4.229007,-3.136167,1,9,1,7,8,31
3.97831,0.002054,1,9,1,10,11,35
2.436483,0.003207,1,9,1,11,12,39
2.211665,0.009313,1,9,1,12,13,43
2.157217,0.010648,1,9,1,13,14,47
2.379943,0.004795,1,9,1,14,15,51
4.119745,0.006876,1,9,1,15,16,55
4.201831,3.141008,1,10,2,3,4,59
2.378703,-3.136501,1,10,2,4,5,63
2.181538,3.139354,1,10,2,5,6,67
2.182696,3.139236,1,10,2,6,7,71
2.602319,-3.141465,1,10,2,7,8,75
3.860324,-3.137331,1,10,2,8,9,79
4.114928,0.007611,1,10,2,11,12,83
2.60128,0.000194,1,10,2,12,13,87
2.156417,0.01125,1,10,2,13,14,91
1.988055,0.016742,1,10,2,14,15,95
2.547859,0.001098,1,10,2,15,16,99
4.1964,-0.013897,1,11,3,1,2,103
3.867843,-3.137794,1,11,3,4,5,107
2.634736,-3.131896,1,11,3,5,6,111
2.154857,-3.130482,1,11,3,6,7,115
2.183732,3.138897,1,11,3,7,8,119
2.491365,-3.139249,1,11,3,8,9,123
4.314479,3.139391,1,11,3,9,10,127
4.034225,0.001542,1,11,3,12,13,131
2.494459,0.002098,1,11,3,13,14,135
2.071872,0.000163,1,11,3,14,15,139
2.130913,-0.001606,1,11,3,15,16,143
2.384594,0.004421,1,12,4,1,2,147
3.979714,0.001945,1,12,4,2,3,151
4.514331,-3.140066,1,12,4,5,6,155
2.692696,-3.133532,1,12,4,6,7,159
2.185941,3.138529,1,12,4,7,8,163
2.105352,-3.129501,1,12,4,8,9,167
2.549391,-3.140975,1,12,4,9,10,171
4.070241,-3.134095,1,12,4,10,11,175
4.030073,0.001553,1,12,4,13,14,179
2.467035,0.013946,1,12,4,14,15,183
2.072223,-2.5e-05,1,12,4,15,16,187
2.071405,0.00013,1,13,5,1,2,191
2.550208,0.000735,1,13,5,2,3,195
4.480929,-0.00413,1,13,5,3,4,199
4.260101,3.139964,1,13,5,6,7,203
2.548745,-3.140692,1,13,5,7,8,207
2.045032,-3.127073,1,13,5,8,9,211
2.128538,3.140092,1,13,5,9,10,215
2.494869,-3.139773,1,13,5,10,11,219
4.037053,-3.140358,1,13,5,11,12,223
3.922328,0.003082,1,13,5,14,15,227
2.494224,0.002013,1,13,5,15,16,231
2.017644,0.001438,1,14,6,1,2,235
2.072145,0.000111,1,14,6,2,3,239
2.630666,0.010094,1,14,6,3,4,243
3.779825,-0.002085,1,14,6,4,5,247
4.029942,-3.139815,1,14,6,7,8,251
2.434928,-3.137769,1,14,6,8,9,255
2.126319,3.140686,1,14,6,9,10,3
2.070967,-3.141227,1,14,6,10,11,7
2.434276,-3.137754,1,14,6,11,12,11
4.087221,-3.140503,1,14,6,12,13,15
4.031571,0.001801,1,14,6,15,16,19
2.377408,0.005792,1,15,7,1,2,23
2.043554,0.01523,1,15,7,2,3,27
2.156631,0.011424,1,15,7,3,4,31
2.324721,0.006687,1,15,7,4,5,35
3.972801,0.002934,1,15,7,5,6,39
3.944466,3.13775,1,15,7,8,9,43
2.54665,-3.140155,1,15,7,9,10,47
2.072077,-3.141256,1,15,7,10,11,51
2.071435,-3.141194,1,15,7,11,12,55
2.605098,3.141573,1,15,7,12,13,59
4.089951,-3.140584,1,15,7,13,14,63
4.086935,0.001452,1,16,8,1,2,67
2.435169,0.003998,1,16,8,2,3,71
2.158913,0.011099,1,16,8,3,4,75
1.906366,0.004996,1,16,8,4,5,79
2.413738,0.015692,1,16,8,5,6,83
3.924471,0.003232,1,16,8,6,7,87
4.313587,3.139716,1,16,8,9,10,91
2.524915,-3.128931,1,16,8,10,11,95
2.074555,-3.141544,1,16,8,11,12,99
2.26989,-3.133716,1,16,8,12,13,103
2.549921,-3.140448,1,16,8,13,14,107
4.087779,-3.140466,1,16,8,14,15,111
3.957855,0.009214,1,1,9,2,3,115
2.552224,0.000423,1,1,9,3,4,119
1.963324,0.002708,1,1,9,4,5,123
2.019601,0.001116,1,1,9,5,6,127
2.495868,0.001753,1,1,9,6,7,131
4.233883,0.005184,1,1,9,7,8,135
4.036863,-3.1404,1,1,9,10,11,139
2.492875,-3.13964,1,1,9,11,12,143
2.298165,3.136024,1,1,9,12,13,147
2.128728,3.140087,1,1,9,13,14,151
2.494541,-3.139721,1,1,9,14,15,155
4.20436,3.140527,1,1,9,15,16,159
4.121512,0.007346,1,2,10,3,4,163
2.323683,0.006711,1,2,10,4,5,167
2.045244,0.014783,1,2,10,5,6,171
2.104838,0.012553,1,2,10,6,7,175
2.576316,0.011536,1,2,10,7,8,179
3.836558,-0.002718,1,2,10,8,9,183
4.145441,-3.141317,1,2,10,11,12,187
2.636064,-3.131699,1,2,10,12,13,191
2.158233,-3.130522,1,2,10,13,14,195
2.129039,3.140303,1,2,10,14,15,199
2.636771,-3.131713,1,2,10,15,16,203
4.249647,3.127382,1,3,11,1,2,207
3.806944,0.005078,1,3,11,4,5,211
2.546961,0.001207,1,3,11,5,6,215
2.158882,0.01083,1,3,11,6,7,219
2.155445,0.011185,1,3,11,7,8,223
2.410186,0.015816,1,3,11,8,9,227
4.254476,-0.001199,1,3,11,9,10,231
4.08413,-3.140418,1,3,11,12,13,235
2.548649,-3.140556,1,3,11,13,14,239
2.072603,-3.141538,1,3,11,14,15,243
2.240486,3.137641,1,3,11,15,16,247
2.46736,-3.127699,1,4,12,1,2,251
4.032934,-3.140168,1,4,12,2,3,255
4.398035,0.003136,1,4,12,5,6,3
2.633448,0.009768,1,4,12,6,7,7
2.184782,0.022991,1,4,12,7,8,11
2.07232,1.7e-05,1,4,12,8,9,15
2.466385,0.01405,1,4,12,9,10,19
4.003474,0.008913,1,4,12,10,11,23
4.085915,-3.14062,1,4,12,13,14,27
2.440074,-3.13851,1,4,12,14,15,31
2.214026,-3.132427,1,4,12,15,16,35
2.102492,-3.128934,1,5,13,1,2,39
2.547727,-3.140626,1,5,13,2,3,43
4.508772,-3.139641,1,5,13,3,4,47
4.085915,0.000972,1,5,13,6,7,51
2.520074,0.01281,1,5,13,7,8,55
2.016487,0.001603,1,5,13,8,9,59
2.070762,0.000192,1,5,13,9,10,63
2.435545,0.003542,1,5,13,10,11,67
3.97661,0.002435,1,5,13,11,12,71
3.920411,-3.13844,1,5,13,14,15,75
2.604362,3.14132,1,5,13,15,16,79
2.072087,-3.141166,1,6,14,1,2,83
2.099717,-3.128505,1,6,14,2,3,87
2.687044,-3.132612,1,6,14,3,4,91
3.83571,3.138931,1,6,14,4,5,95
4.032102,0.001749,1,6,14,7,8,99
2.407269,-0.007323,1,6,14,8,9,103
2.046956,0.014514,1,6,14,9,10,107
2.01517,0.001952,1,6,14,10,11,111
2.409982,0.01591,1,6,14,11,12,115
4.030511,0.001905,1,6,14,12,13,119
4.087029,-3.140545,1,6,14,15,16,123
2.436404,-3.138159,1,7,15,1,2,127
2.073442,-3.141515,1,7,15,2,3,131
2.183076,3.139137,1,7,15,3,4,135
2.380202,-3.136445,1,7,15,4,5,139
4.034264,-3.139872,1,7,15,5,6,143
3.863119,0.004402,1,7,15,8,9,147
2.4659,0.014553,1,7,15,9,10,151
2.044802,0.014929,1,7,15,10,11,155
2.016791,0.001909,1,7,15,11,12,159
2.551157,0.000984,1,7,15,12,13,163
4.152648,4.7e-05,1,7,15,13,14,167
4.148894,3.141509,1,8,16,1,2,171
2.441075,-3.138398,1,8,16,2,3,175
2.185901,3.139023,1,8,16,3,4,179
2.016952,-3.139867,1,8,16,4,5,183
2.49581,-3.139435,1,8,16,5,6,187
3.983372,-3.139249,1,8,16,6,7,191
4.257358,-0.001101,1,8,16,9,10,195
2.494613,0.002408,1,8,16,10,11,199
2.017578,0.001664,1,8,16,11,12,203
2.214767,0.009551,1,8,16,12,13,207
2.494284,0.00246,1,8,16,13,14,211
4.114095,-0.005983,1,8,16,14,15,215
4.030774,-3.140139,1,9,1,2,3,219
2.605378,3.141075,1,9,1,3,4,223
2.016012,-3.140201,1,9,1,4,5,227
2.128247,3.140055,1,9,1,5,6,231
2.493203,-3.139692,1,9,1,6,7,235
4.252916,3.140235,1,9,1,7,8,239
3.980613,0.001977,1,9,1,10,11,243
2.438765,0.003112,1,9,1,11,12,247
2.215276,0.008821,1,9,1,12,13,251
2.102274,0.012395,1,9,1,13,14,255
