BIOZ1,BIOZ2,BIOZ3,BIOZ4,ECG,PPG,EXC_FREQ_KHZ,MUX_CONFIG,PACKET_NUMBER
43.719543738727495,45.70865944255527,62.38772877022967,68.26842101214504,0,10753,10,1,192
43.719543738727495,45.70865944255527,62.38772877022967,68.26842101214504,0,10753,10,1,193
43.719543738727495,45.70865944255527,62.38772877022967,68.26842101214504,0,10753,10,1,194
43.720168914166145,45.708457712150235,62.38772877022967,68.26842101214504,0,10753,10,1,195
43.719543738727495,45.70436544548408,62.38772877022967,68.26842101214504,0,10753,10,1,196
43.720168914166145,45.70436544548408,62.38772877022967,68.26842101214504,0,10753,10,1,197
43.720168914166145,45.70436544548408,62.38772877022967,68.26842101214504,0,10753,10,1,198
43.720168914166145,45.705019003235876,62.38772877022967,68.26842101214504,0,10753,10,1,199
43.720168914166145,45.705019003235876,62.38772877022967,68.26842101214504,0,10753,10,1,200
43.720168914166145,45.705019003235876,62.38772877022967,68.26842101214504,0,10753,10,1,201
43.720168914166145,45.70436544548408,62.38772877022967,68.26842101214504,0,10753,10,1,202
43.719543738727495,45.70865944255527,62.38772877022967,68.26842101214504,0,10753,10,1,203
43.719543738727495,45.70865944255527,62.38772877022967,68.26842101214504,0,11009,10,1,204
43.720168914166145,45.70865944255527,62.38772877022967,68.26842101214504,0,11009,10,1,205
43.720168914166145,45.70865944255527,62.38772877022967,68.26842101214504,0,11009,10,1,206
43.720168914166145,45.70865944255527,62.38772877022967,68.26842101214504,0,11009,10,1,207
43.719543738727495,45.70865944255527,62.38772877022967,68.26842101214504,0,11009,10,1,208
43.720168914166145,45.7085032927308,62.38772877022967,68.26842101214504,0,11009,10,1,209
43.720168914166145,45.7085032927308,62.38772877022967,68.26842101214504,0,10753,10,1,210
43.720168914166145,45.705019003235876,62.38772877022967,68.26842101214504,0,10753,10,1,211
43.720168914166145,45.70931306170986,62.38772877022967,68.26842101214504,0,10753,10,1,212
43.720168914166145,45.70865944255527,62.38772877022967,68.26842101214504,0,10753,10,1,213
43.720168914166145,45.70865944255527,62.38772877022967,68.26842101214504,0,11009,10,1,214
43.719543738727495,45.705019003235876,62.38772877022967,68.26842101214504,0,11009,10,1,215
43.719543738727495,45.705019003235876,62.38772877022967,68.26842101214504,0,11009,10,1,216
43.719543738727495,45.705019003235876,62.38772877022967,68.26842101214504,0,11009,10,1,217
43.719543738727495,45.70865944255527,62.38772877022967,68.26842101214504,0,11009,10,1,218
43.719543738727495,45.70931306170986,62.38772877022967,68.26842101214504,0,11009,10,1,219
43.720168914166145,45.70865944255527,62.38772877022967,68.26842101214504,0,11009,10,1,220
43.720168914166145,45.708457712150235,62.38772877022967,68.26842101214504,0,10753,10,1,221
43.720168914166145,45.705019003235876,62.38772877022967,68.26842101214504,0,10753,10,1,222
43.720168914166145,45.705019003235876,62.38772877022967,68.26842101214504,0,10753,10,1,223
43.72027341718414,45.70865944255527,62.38772877022967,68.26842101214504,0,10753,10,1,224
43.72027341718414,45.70931306170986,62.38772877022967,68.26842101214504,0,10753,10,1,225
43.72027341718414,45.70931306170986,62.38772877022967,68.26842101214504,0,10753,10,1,226
43.720168914166145,45.70931306170986,62.38772877022967,68.26842101214504,0,11009,10,1,227
43.720168914166145,45.705019003235876,62.38772877022967,68.26842101214504,0,11009,10,1,228
43.719543738727495,45.705019003235876,62.38772877022967,68.26842101214504,0,11009,10,1,229
43.719543738727495,45.70865944255527,62.38772877022967,68.26842101214504,0,10753,10,1,230
43.72027341718414,45.70935861011823,62.38772877022967,68.26842101214504,0,10753,10,1,231
43.72027341718414,45.70935861011823,62.38772877022967,68.26842101214504,0,10753,10,1,232
43.720168914166145,45.70861428754569,62.38772877022967,68.26842101214504,0,10753,10,1,233
43.720168914166145,45.70506467873392,62.38772877022967,68.26842101214504,0,10753,10,1,234
43.720168914166145,45.70506467873392,62.38772877022967,68.26842101214504,0,10753,10,1,235
43.72027341718414,45.70436544548408,62.38772877022967,68.26842101214504,0,11009,10,1,236
43.720168914166145,45.70436544548408,62.38772877022967,68.26842101214504,0,11009,10,1,237
43.720168914166145,45.70436544548408,62.38772877022967,68.26842101214504,0,11009,10,1,238
43.720168914166145,45.70865944255527,62.38772877022967,68.26842101214504,0,11009,10,1,239
43.719543738727495,45.70865944255527,62.38772877022967,68.26842101214504,0,11009,10,1,240
43.720168914166145,45.70931306170986,62.38772877022967,68.26842101214504,0,11009,10,1,241
43.719543738727495,45.70780400687424,62.38772877022967,68.26842101214504,0,11009,10,1,242
43.719543738727495,45.70780400687424,62.38772877022967,68.26842101214504,0,11009,10,1,243
43.719543738727495,45.70436544548408,62.38772877022967,68.26842101214504,0,10753,10,1,244
43.719543738727495,45.70436544548408,62.38772877022967,68.26842101214504,0,10753,10,1,245
43.720168914166145,45.70436544548408,62.38772877022967,68.26842101214504,63,11009,10,1,246
43.72027341718414,45.70506467873392,62.38772877022967,68.26842101214504,557,11009,10,1,247
43.72027341718414,45.70506467873392,62.38772877022967,68.26842101214504,1323,11009,10,1,248
43.72027341718414,45.70506467873392,62.38772877022967,68.26842101214504,2253,11009,10,1,249
43.719543738727495,45.70865944255527,62.38772877022967,68.26842101214504,3274,11009,10,1,250
43.719543738727495,45.70865944255527,62.38772877022967,68.26842101214504,3980,11009,10,1,251
43.720168914166145,45.70931306170986,62.38772877022967,68.26842101214504,3999,11009,10,1,252
43.720168914166145,45.70931306170986,62.38772877022967,68.26842101214504,3999,11009,10,1,253
43.720168914166145,45.70931306170986,62.38772877022967,68.26842101214504,3999,11009,10,1,254
43.720168914166145,45.70931306170986,62.38772877022967,68.26842101214504,3999,11009,10,1,255
43.720168914166145,45.70931306170986,62.38772877022967,68.26842101214504,3999,11009,10,1,0
43.720168914166145,45.70780400687424,62.38772877022967,68.26842101214504,3999,10753,10,1,1
43.720543600496825,45.705221066128374,62.38772877022967,68.26842101214504,3999,10753,10,1,2
43.720168914166145,45.705221066128374,62.38772877022967,68.26842101214504,3999,10753,10,1,3
43.720543600496825,45.7085032927308,62.38772877022967,68.26842101214504,3999,10753,10,1,4
43.722832972340754,45.70931306170986,62.38772877022967,68.26842101214504,3999,10753,10,1,5
43.723458288897,45.7085032927308,62.38772877022967,68.26842101214504,3999,10753,10,1,6
43.722832972340754,45.708457712150235,62.38772877022967,68.26842101214504,3999,10753,10,1,7
43.719543738727495,45.708457712150235,62.38772877022967,68.26842101214504,3999,10753,10,1,8
43.719543738727495,45.70865944255527,62.38772877022967,68.26842101214504,3999,11009,10,1,9
43.719543738727495,45.70865944255527,62.38772877022967,68.26842101214504,3999,11009,10,1,10
43.719543738727495,45.70865944255527,62.38772877022967,68.26842101214504,3999,11009,10,1,11
43.719543738727495,45.7085032927308,62.38772877022967,68.26842101214504,3999,11009,10,1,12
43.719543738727495,45.70865944255527,62.38772877022967,68.26842101214504,3999,11009,10,1,13
43.719543738727495,45.70865944255527,62.38772877022967,68.26842101214504,3999,11009,10,1,14
43.719543738727495,45.70865944255527,62.38772877022967,68.26842101214504,3999,11009,10,1,15
43.720168914166145,45.70865944255527,62.38772877022967,68.26842101214504,3999,11009,10,1,16
43.722832972340754,45.70865944255527,62.38772877022967,68.26842101214504,3999,11009,10,1,17
43.720168914166145,45.70865944255527,62.38772877022967,68.26842101214504,3999,10753,10,1,18
43.719543738727495,45.70780400687424,62.38772877022967,68.26842101214504,3999,10753,10,1,19
43.719543738727495,45.70865944255527,62.38772877022967,68.26842101214504,3999,10753,10,1,20
43.719543738727495,45.70865944255527,62.38772877022967,68.26842101214504,3999,10753,10,1,21
43.720168914166145,45.70931306170986,62.38772877022967,68.26842101214504,3999,10753,10,1,22
43.719543738727495,45.70865944255527,62.38772877022967,68.26842101214504,3999,10753,10,1,23
43.720168914166145,45.70506467873392,62.38772877022967,68.26842101214504,3999,10753,10,1,24
43.720168914166145,45.705019003235876,62.38772877022967,68.26842101214504,3999,10753,10,1,25
43.720168914166145,45.705019003235876,62.38772877022967,68.26842101214504,3999,10753,10,1,26
43.720168914166145,45.705019003235876,62.38772877022967,68.26842101214504,3999,10753,10,1,27
43.720168914166145,45.705019003235876,62.38772877022967,68.26842101214504,3999,10753,10,1,28
43.720168914166145,45.70865944255527,62.38772877022967,68.26842101214504,3999,11009,10,1,29
43.719543738727495,45.70865944255527,62.38772877022967,68.26842101214504,3999,11009,10,1,30
43.719543738727495,45.70865944255527,62.38772877022967,68.26842101214504,3999,11009,10,1,31
43.719543738727495,45.70865944255527,62.38772877022967,68.26842101214504,3999,11009,10,1,32
43.719543738727495,45.70865944255527,62.38772877022967,68.26842101214504,3999,11009,10,1,33
43.72027341718414,45.707758819755504,62.38772877022967,68.26842101214504,3999,11009,10,1,34
43.72027341718414,45.707758819755504,62.38772877022967,68.26842101214504,3999,11009,10,1,35
43.72272896589169,45.70865944255527,62.38772877022967,68.26842101214504,3999,11009,10,1,36
43.719543738727495,45.70865944255527,62.38772877022967,68.26842101214504,3999,11009,10,1,37
43.72027341718414,45.70436544548408,62.38772877022967,68.26842101214504,3999,11009,10,1,38
43.72027341718414,45.70436544548408,62.38772877022967,68.26842101214504,3999,11009,10,1,39
43.72027341718414,45.70506467873392,62.38772877022967,68.26842101214504,3999,11009,10,1,40
43.72027341718414,45.70780400687424,62.38772877022967,68.26842101214504,3999,11009,10,1,41
43.723458288897,45.708457712150235,62.38772877022967,68.26842101214504,3999,11009,10,1,42
43.723458288897,45.708457712150235,62.38772877022967,68.26842101214504,3999,11009,10,1,43
43.720168914166145,45.708457712150235,62.38772877022967,68.26842101214504,3999,11009,10,1,44
43.719543738727495,45.70865944255527,62.38772877022967,68.26842101214504,3999,11009,10,1,45
43.720168914166145,45.70780400687424,62.38772877022967,68.26842101214504,3999,11009,10,1,46
43.722832972340754,45.708457712150235,62.38772877022967,68.26842101214504,3999,11009,10,1,47
43.722832972340754,45.708457712150235,62.38772877022967,68.26842101214504,3999,11009,10,1,48
43.720168914166145,45.70865944255527,62.38772877022967,68.26842101214504,3999,11009,10,1,49
43.720168914166145,45.70865944255527,62.38772877022967,68.26842101214504,3999,11009,10,1,50
43.719543738727495,45.70865944255527,62.38772877022967,68.26842101214504,3999,11009,10,1,51
43.723458288897,45.70865944255527,62.38772877022967,68.26842101214504,3999,11009,10,1,52
43.720168914166145,45.70931306170986,62.38772877022967,68.26842101214504,3999,11009,10,1,53
43.720168914166145,45.70931306170986,62.38772877022967,68.26842101214504,3999,11009,10,1,54
43.720168914166145,45.70865944255527,62.38772877022967,68.26842101214504,3999,11009,10,1,55
43.720168914166145,45.70865944255527,62.38772877022967,68.26842101214504,3999,11009,10,1,56
43.719543738727495,45.70865944255527,62.38772877022967,68.26842101214504,3999,11009,10,1,57
43.719543738727495,45.70865944255527,62.38772877022967,68.26842101214504,3999,11009,10,1,58
43.719543738727495,45.70506467873392,62.38772877022967,68.26842101214504,3999,11009,10,1,59
43.723458288897,45.708457712150235,62.38772877022967,68.26842101214504,3999,11009,10,1,60
43.72027341718414,45.708457712150235,62.38772877022967,68.26842101214504,3999,11009,10,1,61
43.72027341718414,45.70865944255527,62.38772877022967,68.26842101214504,3999,11009,10,1,62
43.72027341718414,45.70865944255527,62.38772877022967,68.26842101214504,3999,11009,10,1,63
43.72027341718414,45.70931306170986,62.38772877022967,68.26842101214504,3999,11009,10,1,64
43.720168914166145,45.70931306170986,62.38772877022967,68.26842101214504,3999,11009,10,1,65
43.72027341718414,45.70931306170986,62.38772877022967,68.26842101214504,3999,11009,10,1,66
43.720168914166145,45.70865944255527,62.38772877022967,68.26842101214504,3999,11009,10,1,67
43.719543738727495,45.70865944255527,62.38772877022967,68.26842101214504,3999,11009,10,1,68
43.719543738727495,45.70865944255527,62.38772877022967,68.26842101214504,3999,11009,10,1,69
43.720168914166145,45.70931306170986,62.38772877022967,68.26842101214504,3999,11009,10,1,70
43.722832972340754,45.70931306170986,62.38772877022967,68.26842101214504,3999,11009,10,1,71
43.72027341718414,45.70865944255527,62.38772877022967,68.26842101214504,3999,11009,10,1,72
43.72027341718414,45.70865944255527,62.38772877022967,68.26842101214504,3999,11009,10,1,73
43.72027341718414,45.70865944255527,62.38772877022967,68.26842101214504,3999,11009,10,1,74
43.72383267082578,45.70865944255527,62.38772877022967,68.26842101214504,3999,11009,10,1,75
43.72383267082578,45.70865944255527,62.38772877022967,68.26842101214504,3999,11009,10,1,76
43.720168914166145,45.70865944255527,62.38772877022967,68.26842101214504,3999,11009,10,1,77
43.720168914166145,45.705019003235876,62.38772877022967,68.26842101214504,3999,11009,10,1,78
43.720168914166145,45.705019003235876,62.38772877022967,68.26842101214504,3999,11009,10,1,79
43.719543738727495,45.70865944255527,62.38772877022967,68.26842101214504,3999,11009,10,1,80
43.719543738727495,45.70865944255527,62.38772877022967,68.26842101214504,3999,11009,10,1,81
43.719543738727495,45.70865944255527,62.38772877022967,68.26842101214504,3999,11009,10,1,82
43.720168914166145,45.70931306170986,62.38772877022967,68.26842101214504,3999,11009,10,1,83
43.720168914166145,45.70931306170986,62.38772877022967,68.26842101214504,3999,11009,10,1,84
43.720168914166145,45.70931306170986,62.38772877022967,68.26842101214504,3999,11009,10,1,85
43.719543738727495,45.70865944255527,62.38772877022967,68.26842101214504,3999,11009,10,1,86
43.720168914166145,45.70865944255527,62.38772877022967,68.26842101214504,3999,11009,10,1,87
43.719543738727495,45.70865944255527,62.38772877022967,68.26842101214504,3999,11009,10,1,88
43.720168914166145,45.70865944255527,62.38772877022967,68.26842101214504,3999,11009,10,1,89
43.719543738727495,45.70865944255527,62.38772877022967,68.26842101214504,3999,11009,10,1,90
43.720168914166145,45.70931306170986,62.38772877022967,68.26842101214504,3999,11009,10,1,91
43.720168914166145,45.70865944255527,62.38772877022967,68.26842101214504,3999,11009,10,1,92
43.720168914166145,45.70865944255527,62.38772877022967,68.26842101214504,3999,11009,10,1,93
43.72027341718414,45.70865944255527,62.38772877022967,68.26842101214504,3999,11009,10,1,94
43.720168914166145,45.70931306170986,62.38772877022967,68.26842101214504,3999,11009,10,1,95
43.720168914166145,45.70931306170986,62.38772877022967,68.26842101214504,3999,11009,10,1,96
43.720168914166145,45.70931306170986,62.38772877022967,68.26842101214504,3999,11009,10,1,97
43.720168914166145,45.70865944255527,62.38772877022967,68.26842101214504,3999,11009,10,1,98
43.719543738727495,45.70861428754569,62.38772877022967,68.26842101214504,3999,11009,10,1,99
43.719543738727495,45.70865944255527,62.38772877022967,68.26842101214504,3999,11009,10,1,100
43.719543738727495,45.70865944255527,62.38772877022967,68.26842101214504,3999,11009,10,1,101
43.719543738727495,45.70865944255527,62.38772877022967,68.26842101214504,3999,11009,10,1,102
43.719543738727495,45.70865944255527,62.38772877022967,68.26842101214504,3999,11009,10,1,103
43.719543738727495,45.70780400687424,62.38772877022967,68.26842101214504,3999,11009,10,1,104
43.720168914166145,45.70865944255527,62.38772877022967,68.26842101214504,3999,11009,10,1,105
43.720168914166145,45.70865944255527,62.38772877022967,68.26842101214504,3999,11009,10,1,106
43.720168914166145,45.70865944255527,62.38772877022967,68.26842101214504,3999,11009,10,1,107
43.720168914166145,45.70865944255527,62.38772877022967,68.26842101214504,3999,11009,10,1,108
43.720168914166145,45.70865944255527,62.38772877022967,68.26842101214504,3999,11009,10,1,109
43.719543738727495,45.70865944255527,62.38772877022967,68.26842101214504,3999,11009,10,1,110
43.719543738727495,45.70865944255527,62.38772877022967,68.26842101214504,3999,11009,10,1,111
43.720168914166145,45.70931306170986,62.38772877022967,68.26842101214504,3999,11009,10,1,112
43.72027341718414,45.70931306170986,62.38772877022967,68.26842101214504,3999,11009,10,1,113
43.720168914166145,45.70865944255527,62.38772877022967,68.26842101214504,3999,11009,10,1,114
43.720168914166145,45.705019003235876,62.38772877022967,68.26842101214504,3999,11009,10,1,115
43.720168914166145,45.70865944255527,62.38772877022967,68.26842101214504,3999,11009,10,1,116
43.720168914166145,45.70865944255527,62.38772877022967,68.26842101214504,3999,11009,10,1,117
43.720168914166145,45.70865944255527,62.38772877022967,68.26842101214504,3999,11009,10,1,118
43.720168914166145,45.705019003235876,62.38772877022967,68.26842101214504,3999,11009,10,1,119
43.72027341718414,45.705019003235876,62.38772877022967,68.26842101214504,3999,11009,10,1,120
43.72027341718414,45.70861428754569,62.38772877022967,68.26842101214504,3999,11009,10,1,121
43.720168914166145,45.70865944255527,62.38772877022967,68.26842101214504,3999,11009,10,1,122
43.719543738727495,45.70865944255527,62.38772877022967,68.26842101214504,3999,11009,10,1,123
43.719543738727495,45.70865944255527,62.38772877022967,68.26842101214504,3999,11009,10,1,124
43.720168914166145,45.70865944255527,62.38772877022967,68.26842101214504,3999,11009,10,1,125
43.720168914166145,45.70861428754569,62.38772877022967,68.26842101214504,3999,11009,10,1,126
43.719439646028796,45.70861428754569,62.38772877022967,68.26842101214504,3999,11009,10,1,127
43.719439646028796,45.70780400687424,62.38772877022967,68.26842101214504,3999,11009,10,1,128
43.719543738727495,45.70780400687424,62.38772877022967,68.26842101214504,3999,11009,10,1,129
43.719543738727495,45.70780400687424,62.38772877022967,68.26842101214504,3999,11009,10,1,130
43.719543738727495,45.70865944255527,62.38772877022967,68.26842101214504,3999,11009,10,1,131
43.720168914166145,45.70861428754569,62.38772877022967,68.26842101214504,3999,11009,10,1,132
43.720168914166145,45.70861428754569,62.38772877022967,68.26842101214504,3999,11009,10,1,133
43.720168914166145,45.70861428754569,62.38772877022967,68.26842101214504,3999,11009,10,1,134
43.720168914166145,45.70861428754569,62.38772877022967,68.26842101214504,3999,11009,10,4,45
43.720168914166145,45.70861428754569,62.39177301775237,68.26842101214504,3999,11009,10,2,140
43.720168914166145,45.70861428754569,62.39177301775237,68.26842101214504,3999,11009,10,2,141
43.720168914166145,45.70861428754569,62.387547141196094,68.26810869874838,3999,11009,10,2,142
43.720168914166145,45.70861428754569,62.38731017379233,68.2675492903863,3999,11009,10,2,143
43.720168914166145,45.70861428754569,62.387547141196094,68.26810869874838,3999,11009,10,2,144
43.720168914166145,45.70861428754569,62.39201020546909,68.27257877117327,3999,11009,10,2,145
43.720168914166145,45.70861428754569,62.39219195445303,68.27257877117327,3999,11009,10,2,146
43.720168914166145,45.70861428754569,62.39219195445303,68.26912549255536,3999,11009,10,2,147
43.720168914166145,45.70861428754569,62.39261095183883,68.26912549255536,3999,11009,10,2,148
43.720168914166145,45.70861428754569,62.39261095183883,68.26912549255536,3999,11009,10,2,149
43.720168914166145,45.70861428754569,62.38772877022967,68.26842101214504,3999,11009,10,2,150
43.720168914166145,45.70861428754569,62.38772877022967,68.26842101214504,3999,11009,10,2,151
43.720168914166145,45.70861428754569,62.38865761274742,68.26873320954043,3999,11009,10,2,152
43.720168914166145,45.70861428754569,62.38865761274742,68.26873320954043,3999,11009,10,2,153
43.720168914166145,45.70861428754569,62.38772877022967,68.26842101214504,3999,11009,10,2,154
43.720168914166145,45.70861428754569,62.38772877022967,68.26842101214504,3999,11009,10,2,155
43.720168914166145,45.70861428754569,62.38772877022967,68.26842101214504,3999,11009,10,2,156
43.720168914166145,45.70861428754569,62.38772877022967,68.27289119727331,3999,11009,10,2,157
43.720168914166145,45.70861428754569,62.38772877022967,68.26842101214504,3999,11009,10,2,158
43.720168914166145,45.70861428754569,62.38772877022967,68.26842101214504,3999,11009,10,2,159
43.720168914166145,45.70861428754569,62.38772877022967,68.26842101214504,3999,11009,10,2,160
43.720168914166145,45.70861428754569,62.38772877022967,68.26842101214504,3999,11009,10,2,161
43.720168914166145,45.70861428754569,62.38772877022967,68.26842101214504,3999,11009,10,2,162
43.720168914166145,45.70861428754569,62.38772877022967,68.26842101214504,3999,11009,10,2,163
43.720168914166145,45.70861428754569,62.38772877022967,68.26842101214504,3999,11009,10,2,164
43.720168914166145,45.70861428754569,62.38772877022967,68.26771682443992,3999,11009,10,2,165
43.720168914166145,45.70861428754569,62.39219195445303,68.26842101214504,3999,11009,10,2,166
43.720168914166145,45.70861428754569,62.391681536832465,68.26827590702374,3999,11009,10,2,167
43.720168914166145,45.70861428754569,62.39219195445303,68.26842101214504,3999,11009,10,2,168
43.720168914166145,45.70861428754569,62.391681536832465,68.26827590702374,3999,11009,10,2,169
43.720168914166145,45.70861428754569,62.388476349178795,68.26842101214504,3999,11009,10,2,170
43.720168914166145,45.70861428754569,62.38731017379233,68.2675492903863,3999,11009,10,2,171
43.720168914166145,45.70861428754569,62.387547141196094,68.26810869874838,3999,11009,10,2,172
43.720168914166145,45.70861428754569,62.38731017379233,68.26307945502076,3999,11009,10,2,173
43.720168914166145,45.70861428754569,62.38731017379233,68.26307945502076,3999,11009,10,2,174
43.720168914166145,45.70861428754569,62.38731017379233,68.26307945502076,3999,11009,10,2,175
43.720168914166145,45.70861428754569,62.38772877022967,68.26842101214504,3999,11009,10,2,176
43.720168914166145,45.70861428754569,62.38772877022967,68.26842101214504,3999,11009,10,2,177
43.720168914166145,45.70861428754569,62.38731017379233,68.2675492903863,3999,11009,10,2,178
43.720168914166145,45.70861428754569,62.38731017379233,68.2675492903863,3999,11009,10,2,179
43.720168914166145,45.70861428754569,62.38772877022967,68.26395083428345,3999,11009,10,2,180
43.720168914166145,45.70861428754569,62.38772877022967,68.26723704783467,3999,11009,10,2,181
43.720168914166145,45.70861428754569,62.38772877022967,68.26723704783467,3999,11009,10,2,182
43.720168914166145,45.70861428754569,62.38772877022967,68.26842101214504,3999,11009,10,2,183
43.720168914166145,45.70861428754569,62.38772877022967,68.26842101214504,3999,11009,10,2,184
43.720168914166145,45.70861428754569,62.38772877022967,68.26842101214504,3999,11009,10,2,185
43.720168914166145,45.70861428754569,62.38772877022967,68.26842101214504,3999,11009,10,2,186
43.720168914166145,45.70861428754569,62.39219195445303,68.26842101214504,3999,11009,10,2,187
43.720168914166145,45.70861428754569,62.39219195445303,68.26842101214504,3999,11009,10,2,188
43.720168914166145,45.70861428754569,62.39219195445303,68.26842101214504,3999,11009,10,2,189
43.720168914166145,45.70861428754569,62.39201020546909,68.26810869874838,3999,11009,10,2,190
43.720168914166145,45.70861428754569,62.38731017379233,68.26307945502076,3999,11009,10,2,191
43.720168914166145,45.70861428754569,62.38772877022967,68.26810869874838,3999,11009,10,2,192
43.720168914166145,45.70861428754569,62.38772877022967,68.26842101214504,3999,11009,10,2,193
43.720168914166145,45.70861428754569,62.38772877022967,68.26842101214504,3999,11009,10,2,194
43.720168914166145,45.70861428754569,62.39201020546909,68.26842101214504,3999,11009,10,2,195
43.720168914166145,45.70861428754569,62.39201020546909,68.26810869874838,3999,11009,10,2,196
43.720168914166145,45.70861428754569,62.38772877022967,68.26842101214504,3999,11009,10,2,197
43.720168914166145,45.70861428754569,62.38772877022967,68.26395083428345,3999,11009,10,2,198
43.720168914166145,45.70861428754569,62.38772877022967,68.26842101214504,3999,11009,10,2,199
43.720168914166145,45.70861428754569,62.38772877022967,68.26842101214504,3999,11009,10,2,200
43.720168914166145,45.70861428754569,62.38772877022967,68.26842101214504,3999,11009,10,2,201
43.720168914166145,45.70861428754569,62.38772877022967,68.26842101214504,3999,11009,10,2,202
43.720168914166145,45.70861428754569,62.38772877022967,68.26842101214504,3999,11009,10,2,203
43.720168914166145,45.70861428754569,62.387910341966055,68.26842101214504,3999,11009,10,2,204
43.720168914166145,45.70861428754569,62.38772877022967,68.26842101214504,3999,11009,10,2,205
43.720168914166145,45.70861428754569,62.387910341966055,68.26842101214504,3999,11009,10,2,206
43.720168914166145,45.70861428754569,62.38731017379233,68.2675492903863,3999,11009,10,2,207
43.720168914166145,45.70861428754569,62.38865761274742,68.26842101214504,3999,11009,10,2,208
43.720168914166145,45.70861428754569,62.38772877022967,68.26842101214504,3999,11009,10,2,209
43.720168914166145,45.70861428754569,62.38865761274742,68.26943740772964,3999,11009,10,2,210
43.720168914166145,45.70861428754569,62.38772877022967,68.26842101214504,3999,11009,10,2,211
43.720168914166145,45.70861428754569,62.39219195445303,68.26842101214504,3999,11009,10,2,212
43.720168914166145,45.70861428754569,62.38772877022967,68.26842101214504,3999,11009,10,2,213
43.720168914166145,45.70861428754569,62.38772877022967,68.26842101214504,3999,11009,10,2,214
43.720168914166145,45.70861428754569,62.38731017379233,68.26842101214504,3999,11009,10,2,215
43.720168914166145,45.70861428754569,62.38731017379233,68.26898047820303,3999,11009,10,2,216
43.720168914166145,45.70861428754569,62.38805764077555,68.2682536695537,3999,11009,10,2,217
43.720168914166145,45.70861428754569,62.38805764077555,68.26842101214504,3999,11009,10,2,218
43.720168914166145,45.70861428754569,62.38772877022967,68.26842101214504,3999,11009,10,2,219
43.720168914166145,45.70861428754569,62.38772877022967,68.26912549255536,3999,11265,10,2,220
43.720168914166145,45.70861428754569,62.39219195445303,68.26929286246596,3999,11265,10,2,221
43.720168914166145,45.70861428754569,62.39219195445303,68.26929286246596,3999,11265,10,2,222
43.720168914166145,45.70861428754569,62.39219195445303,68.26873320954043,3999,11265,10,2,223
43.720168914166145,45.70861428754569,62.39201020546909,68.26810869874838,3999,11265,10,2,224
43.720168914166145,45.70861428754569,62.39201020546909,68.26810869874838,3999,11009,10,2,225
43.720168914166145,45.70861428754569,62.38772877022967,68.26810869874838,3999,11009,10,2,226
43.720168914166145,45.70861428754569,62.38772877022967,68.26740422883051,3999,11009,10,2,227
43.720168914166145,45.70861428754569,62.38772877022967,68.26842101214504,3999,11009,10,2,228
43.720168914166145,45.70861428754569,62.38772877022967,68.26842101214504,3999,11009,10,2,229
43.720168914166145,45.70861428754569,62.39201020546909,68.26842101214504,3999,11009,10,2,230
43.720168914166145,45.70861428754569,62.39201020546909,68.26842101214504,3999,11009,10,2,231
43.720168914166145,45.70861428754569,62.39201020546909,68.26810869874838,3999,11009,10,2,232
43.720168914166145,45.70861428754569,62.39201020546909,68.26842101214504,3999,11009,10,2,233
43.720168914166145,45.70861428754569,62.39201020546909,68.26810869874838,3999,11009,10,2,234
43.720168914166145,45.70861428754569,62.39219195445303,68.26842101214504,3999,11009,10,2,235
43.720168914166145,45.70861428754569,62.38772877022967,68.26842101214504,3999,11009,10,2,236
43.720168914166145,45.70861428754569,62.39201020546909,68.26842101214504,3999,11009,10,2,237
43.720168914166145,45.70861428754569,62.38772877022967,68.26842101214504,3999,11009,10,2,238
43.720168914166145,45.70861428754569,62.38772877022967,68.26810869874838,3999,11265,10,2,239
43.720168914166145,45.70861428754569,62.38772877022967,68.26810869874838,3999,11265,10,2,240
43.720168914166145,45.70861428754569,62.387547141196094,68.26771682443992,3999,11265,10,2,241
43.720168914166145,45.70861428754569,62.38772877022967,68.26771682443992,3999,11265,10,2,242
43.720168914166145,45.70861428754569,62.387547141196094,68.26810869874838,3999,11009,10,2,243
43.720168914166145,45.70861428754569,62.39237364609447,68.26873320954043,3999,11009,10,2,244
43.720168914166145,45.70861428754569,62.387547141196094,68.26810869874838,3999,11009,10,2,245
43.720168914166145,45.70861428754569,62.38772877022967,68.26842101214504,3999,11009,10,2,246
43.720168914166145,45.70861428754569,62.38772877022967,68.26842101214504,3999,11009,10,2,247
43.720168914166145,45.70861428754569,62.38772877022967,68.26842101214504,3999,11265,10,2,248
43.720168914166145,45.70861428754569,62.38772877022967,68.2665326791566,3999,11265,10,2,249
43.720168914166145,45.70861428754569,62.386981510573676,68.2665326791566,3999,11009,10,2,250
43.720168914166145,45.70861428754569,62.386981510573676,68.26771682443992,3999,11009,10,2,251
43.720168914166145,45.70861428754569,62.387547141196094,68.26810869874838,3999,11009,10,2,252
43.720168914166145,45.70861428754569,62.388476349178795,68.26842101214504,3999,11009,10,2,253
43.720168914166145,45.70861428754569,62.388476349178795,68.26842101214504,3999,11009,10,2,254
43.720168914166145,45.70861428754569,62.388476349178795,68.26810869874838,3999,11009,10,2,255
43.720168914166145,45.70861428754569,62.39201020546909,68.26810869874838,3999,11009,10,2,0
43.720168914166145,45.70861428754569,62.39201020546909,68.26810869874838,3999,11265,10,2,1
43.720168914166145,45.70861428754569,62.388476349178795,68.26842101214504,3999,11265,10,2,2
43.720168914166145,45.70861428754569,62.388476349178795,68.2646553608253,3999,11265,10,2,3
43.720168914166145,45.70861428754569,62.38772877022967,68.26842101214504,3999,11265,10,2,4
43.720168914166145,45.70861428754569,62.38772877022967,68.26842101214504,3999,11265,10,2,5
43.720168914166145,45.70861428754569,62.38772877022967,68.26842101214504,3999,11265,10,2,6
43.720168914166145,45.70861428754569,62.38772877022967,68.26842101214504,3999,11265,10,2,7
43.720168914166145,45.70861428754569,62.38796575858729,68.26842101214504,3999,11265,10,2,8
43.720168914166145,45.70861428754569,62.39219195445303,68.26842101214504,3999,11265,10,2,9
43.720168914166145,45.70861428754569,62.38796575858729,68.26771682443992,3999,11265,10,2,10
43.720168914166145,45.70861428754569,62.39219195445303,68.26771682443992,3999,11265,10,2,11
43.720168914166145,45.70861428754569,62.38731017379233,68.2675492903863,3999,11009,10,2,12
43.720168914166145,45.70861428754569,62.38731017379233,68.2675492903863,3999,11009,10,2,13
43.720168914166145,45.70861428754569,62.38731017379233,68.26307945502076,3999,11009,10,2,14
43.720168914166145,45.70861428754569,62.38731017379233,68.26307945502076,3999,11009,10,2,15
43.720168914166145,45.70861428754569,62.387547141196094,68.26810869874838,3999,11009,10,2,16
43.720168914166145,45.70861428754569,62.387547141196094,68.26810869874838,3999,11009,10,2,17
43.720168914166145,45.70861428754569,62.38731017379233,68.2675492903863,3999,11009,10,2,18
43.720168914166145,45.70861428754569,62.38731017379233,68.2675492903863,3999,11009,10,2,19
43.720168914166145,45.70861428754569,62.38731017379233,68.2675492903863,3999,11009,10,2,20
43.720168914166145,45.70861428754569,62.38772877022967,68.26842101214504,3999,11009,10,2,21
43.720168914166145,45.70861428754569,62.38772877022967,68.26842101214504,3999,11009,10,2,22
43.720168914166145,45.70861428754569,62.39219195445303,68.26842101214504,3999,11009,10,2,23
43.720168914166145,45.70861428754569,62.39219195445303,68.26842101214504,3999,11009,10,2,24
43.720168914166145,45.70861428754569,62.39219195445303,68.26842101214504,3999,11009,10,2,25
43.720168914166145,45.70861428754569,62.388476349178795,68.26842101214504,3999,11009,10,2,26
43.720168914166145,45.70861428754569,62.39219195445303,68.27289119727331,3999,11265,10,2,27
43.720168914166145,45.70861428754569,62.39219195445303,68.27289119727331,3999,11265,10,2,28
43.720168914166145,45.70861428754569,62.39219195445303,68.27289119727331,3999,11265,10,2,29
43.720168914166145,45.70861428754569,62.38772877022967,68.26842101214504,3999,11265,10,2,30
43.720168914166145,45.70861428754569,62.38772877022967,68.26842101214504,3999,11265,10,2,31
43.720168914166145,45.70861428754569,62.38772877022967,68.26842101214504,3999,11265,10,2,32
43.720168914166145,45.70861428754569,62.38772877022967,68.26842101214504,3999,11265,10,2,33
43.720168914166145,45.70861428754569,62.38772877022967,68.26842101214504,3999,11265,10,2,34
43.720168914166145,45.70861428754569,62.39219195445303,68.27289119727331,3999,11265,10,2,35
43.720168914166145,45.70861428754569,62.39219195445303,68.27289119727331,3999,11265,10,2,36
43.720168914166145,45.70861428754569,62.387547141196094,68.26842101214504,3999,11009,10,2,37
43.720168914166145,45.70861428754569,62.387547141196094,68.26842101214504,3999,11009,10,2,38
43.720168914166145,45.70861428754569,62.38772877022967,68.26842101214504,3999,11009,10,2,39
43.720168914166145,45.70861428754569,62.38772877022967,68.26842101214504,3999,11009,10,2,40
43.720168914166145,45.70861428754569,62.38772877022967,68.26842101214504,3999,11009,10,2,41
43.720168914166145,45.70861428754569,62.38772877022967,68.26842101214504,3999,11009,10,2,42
43.720168914166145,45.70861428754569,62.38772877022967,68.26842101214504,3999,11009,10,2,43
43.720168914166145,45.70861428754569,62.38772877022967,68.26842101214504,3999,11009,10,2,44
43.720168914166145,45.70861428754569,62.38772877022967,68.26842101214504,3999,11009,10,2,45
43.720168914166145,45.70861428754569,62.38772877022967,68.26842101214504,3999,11009,10,2,46
43.720168914166145,45.70861428754569,62.387547141196094,68.26810869874838,3999,11009,10,2,47
43.720168914166145,45.70861428754569,62.387547141196094,68.26810869874838,3999,11009,10,2,48
43.720168914166145,45.70861428754569,62.38772877022967,68.26842101214504,3999,11265,10,2,49
43.720168914166145,45.70861428754569,62.38772877022967,68.26842101214504,3999,11265,10,2,50
43.720168914166145,45.70861428754569,62.38772877022967,68.26842101214504,3999,11265,10,2,51
43.720168914166145,45.70861428754569,62.38772877022967,68.26842101214504,3999,11265,10,2,52
43.720168914166145,45.70861428754569,62.38772877022967,68.26842101214504,3999,11265,10,2,53
43.720168914166145,45.70861428754569,62.38772877022967,68.26842101214504,3999,11265,10,2,54
43.720168914166145,45.70861428754569,62.38772877022967,68.26842101214504,3999,11265,10,2,55
43.720168914166145,45.70861428754569,62.38772877022967,68.26842101214504,3999,11265,10,2,56
43.720168914166145,45.70861428754569,62.38772877022967,68.26842101214504,3999,11265,10,2,57
43.720168914166145,45.70861428754569,62.38772877022967,68.26842101214504,3999,11265,10,2,58
43.720168914166145,45.70861428754569,62.38772877022967,68.26842101214504,3999,11265,10,2,59
43.720168914166145,45.70861428754569,62.38772877022967,68.26842101214504,3999,11265,10,2,60
43.720168914166145,45.70861428754569,62.38772877022967,68.26842101214504,3999,11265,10,2,61
43.720168914166145,45.70861428754569,62.3865630260557,68.26684520388301,3999,11265,10,2,62
43.720168914166145,45.70861428754569,62.3865630260557,68.26684520388301,3999,11265,10,2,63
43.720168914166145,45.70861428754569,62.38772877022967,68.26842101214504,3999,11265,10,2,64
43.720168914166145,45.70861428754569,62.39219195445303,68.26842101214504,3999,11265,10,2,65
43.720168914166145,45.70861428754569,62.38772877022967,68.26842101214504,3999,11265,10,2,66
43.720168914166145,45.70861428754569,62.38772877022967,68.26842101214504,3999,11265,10,2,67
43.720168914166145,45.70861428754569,62.38772877022967,68.26842101214504,3999,11265,10,2,68
43.720168914166145,45.70861428754569,62.38772877022967,68.26842101214504,3999,11265,10,2,69
43.720168914166145,45.70861428754569,62.38772877022967,68.26842101214504,3999,11265,10,2,70
43.720168914166145,45.70861428754569,62.387547141196094,68.26810869874838,3999,11265,10,2,71
43.720168914166145,45.70861428754569,62.38731017379233,68.2675492903863,3999,11009,10,2,72
43.720168914166145,45.70861428754569,62.387547141196094,68.26810869874838,3999,11009,10,2,73
43.720168914166145,45.70861428754569,62.38772877022967,68.26842101214504,3999,11009,10,2,74
43.720168914166145,45.70861428754569,62.38772877022967,68.26842101214504,3999,11009,10,2,75
43.720168914166145,45.70861428754569,62.38772877022967,68.26842101214504,3999,11009,10,2,76
43.720168914166145,45.70861428754569,62.38772877022967,68.2682536695537,3999,11265,10,2,77
43.720168914166145,45.70861428754569,62.38772877022967,68.2682536695537,3999,11265,10,2,78
43.720168914166145,45.70861428754569,62.38731017379233,68.26810869874838,3999,11265,10,2,79
43.720168914166145,45.70861428754569,62.38772877022967,68.26842101214504,3999,11265,10,2,80
43.720168914166145,45.70861428754569,62.38772877022967,68.26842101214504,3999,11265,10,2,81
43.720168914166145,45.70861428754569,62.38772877022967,68.26842101214504,3999,11265,10,2,82
43.720168914166145,45.70861428754569,62.38772877022967,68.26842101214504,3999,11265,10,2,83
43.720168914166145,45.70861428754569,62.38772877022967,68.26842101214504,3999,11265,10,2,84
43.720168914166145,45.70861428754569,62.38772877022967,68.26842101214504,3999,11265,10,2,85
43.720168914166145,45.70861428754569,62.38772877022967,68.26842101214504,3999,11265,10,2,86
43.720168914166145,45.70861428754569,62.38772877022967,68.26810869874838,3999,11009,10,2,87
43.720168914166145,45.70861428754569,62.38772877022967,68.26810869874838,3999,11009,10,2,88
43.720168914166145,45.70861428754569,62.38772877022967,68.26842101214504,3999,11009,10,2,89
43.720168914166145,45.70861428754569,62.38772877022967,68.26842101214504,3999,11009,10,2,90
43.720168914166145,45.70861428754569,62.38772877022967,68.26842101214504,3999,11009,10,2,91
43.720168914166145,45.70861428754569,62.38772877022967,68.26723704783467,3999,11265,10,2,92
43.720168914166145,45.70861428754569,62.38772877022967,68.26723704783467,3999,11265,10,2,93
43.720168914166145,45.70861428754569,62.38772877022967,68.26740422883051,3999,11265,10,2,94
43.720168914166145,45.70861428754569,62.39219195445303,68.26842101214504,3999,11265,10,2,95
43.720168914166145,45.70861428754569,62.38772877022967,68.26842101214504,3999,11265,10,2,96
43.720168914166145,45.70861428754569,62.39219195445303,68.26873320954043,3999,11265,10,2,97
43.720168914166145,45.70861428754569,62.38772877022967,68.26912549255536,3999,11265,10,2,98
43.720168914166145,45.70861428754569,62.39219195445303,68.26912549255536,3999,11265,10,2,99
43.720168914166145,45.70861428754569,62.38772877022967,68.26842101214504,3999,11265,10,2,100
43.720168914166145,45.70861428754569,62.39219195445303,68.26842101214504,3999,11265,10,2,101
43.720168914166145,45.70861428754569,62.38772877022967,68.26842101214504,3999,11265,10,2,102
43.720168914166145,45.70861428754569,62.38772877022967,68.26842101214504,3999,11265,10,2,103
43.720168914166145,45.70861428754569,62.38772877022967,68.26842101214504,3999,11265,10,2,104
43.720168914166145,45.70861428754569,62.39219195445303,68.26771682443992,3999,11265,10,2,105
43.720168914166145,45.70861428754569,62.39219195445303,68.26842101214504,3999,11265,10,2,106
43.720168914166145,45.70861428754569,62.39219195445303,68.26842101214504,3999,11265,10,2,107
43.720168914166145,45.70861428754569,62.39219195445303,68.26842101214504,3999,11265,10,2,108
43.720168914166145,45.70861428754569,62.39219195445303,68.26842101214504,3999,11265,10,2,109
43.720168914166145,45.70861428754569,62.39219195445303,68.26842101214504,3999,11265,10,2,110
43.720168914166145,45.70861428754569,62.38823886472964,68.26842101214504,3999,11265,10,2,111
43.720168914166145,45.70861428754569,62.38772877022967,68.26740422883051,3999,11009,10,2,112
43.720168914166145,45.70861428754569,62.38772877022967,68.26740422883051,3999,11009,10,2,113
43.720168914166145,45.70861428754569,62.38805764077555,68.2682536695537,3999,11009,10,2,114
43.720168914166145,45.70861428754569,62.38805764077555,68.2682536695537,3999,11009,10,2,115
43.720168914166145,45.70861428754569,62.38805764077555,68.2682536695537,3999,11009,10,2,116
43.720168914166145,45.70861428754569,62.39219195445303,68.26842101214504,3999,11265,10,2,117
43.720168914166145,45.70861428754569,62.39219195445303,68.26842101214504,3999,11265,10,2,118
43.720168914166145,45.70861428754569,62.38772877022967,68.26842101214504,3999,11265,10,2,119
43.720168914166145,45.70861428754569,62.38772877022967,68.26842101214504,3999,11265,10,2,120
43.720168914166145,45.70861428754569,62.388476349178795,68.26912549255536,3999,11265,10,2,121
43.720168914166145,45.70861428754569,62.388476349178795,68.26912549255536,3999,11265,10,2,122
43.720168914166145,45.70861428754569,62.387910341966055,68.26873320954043,3999,11265,10,2,123
43.720168914166145,45.70861428754569,62.38772877022967,68.26842101214504,3999,11265,10,2,124
43.720168914166145,45.70861428754569,62.38772877022967,68.26842101214504,3999,11265,10,2,125
43.720168914166145,45.70861428754569,62.38772877022967,68.26842101214504,3999,11265,10,2,126
43.720168914166145,45.70861428754569,62.38772877022967,68.26842101214504,3999,11265,10,2,127
43.720168914166145,45.70861428754569,62.38772877022967,68.26842101214504,3999,11265,10,2,128
43.720168914166145,45.70861428754569,62.38772877022967,68.26842101214504,3999,11265,10,2,129
43.720168914166145,45.70861428754569,62.386981510573676,68.26771682443992,3999,11265,10,2,130
43.720168914166145,45.70861428754569,62.38772877022967,68.26771682443992,3999,11265,10,2,131
43.720168914166145,45.70861428754569,62.388476349178795,68.26771682443992,3999,11265,10,2,132
43.720168914166145,45.70861428754569,62.388476349178795,68.26842101214504,3999,11265,10,2,133
43.720168914166145,45.70861428754569,62.39219195445303,68.26842101214504,3999,11265,10,2,134
43.720168914166145,45.70861428754569,62.38772877022967,68.26842101214504,3999,11265,10,2,135
43.720168914166145,45.70861428754569,62.38772877022967,68.26842101214504,3999,11265,10,2,136
43.720168914166145,45.70861428754569,62.38772877022967,68.26912549255536,3999,11265,10,2,137
43.720168914166145,45.70861428754569,62.38772877022967,68.26740422883051,3999,11265,10,2,138
43.720168914166145,45.70861428754569,62.39219195445303,68.26842101214504,3999,11265,10,2,139
43.720168914166145,45.70861428754569,62.38772877022967,68.26842101214504,3999,11265,10,2,140
43.720168914166145,45.70861428754569,62.38772877022967,68.26842101214504,3999,11265,10,2,141
43.720168914166145,45.70861428754569,62.38772877022967,68.26842101214504,3999,11265,10,2,142
43.720168914166145,45.70861428754569,62.38772877022967,68.26842101214504,3999,11265,10,2,143
43.720168914166145,45.70861428754569,62.38772877022967,68.26842101214504,3999,11265,10,2,144
43.720168914166145,45.70861428754569,62.38772877022967,68.26842101214504,3999,11009,10,2,145
43.720168914166145,45.70861428754569,62.38772877022967,68.26842101214504,3999,11009,10,2,146
43.720168914166145,45.70861428754569,62.38772877022967,68.26771682443992,3999,11009,10,2,147
43.720168914166145,45.70861428754569,62.38772877022967,68.26771682443992,3999,11009,10,2,148
43.720168914166145,45.70861428754569,62.38772877022967,68.26842101214504,3999,11009,10,2,149
43.720168914166145,45.70861428754569,62.38772877022967,68.26842101214504,3999,11009,10,2,150
43.720168914166145,45.70861428754569,62.387910341966055,68.26873320954043,3999,11009,10,2,151
43.720168914166145,45.70861428754569,62.38772877022967,68.26842101214504,3999,11009,10,2,152
43.720168914166145,45.70861428754569,62.388476349178795,68.26912549255536,3999,11009,10,2,153
43.720168914166145,45.70861428754569,62.38772877022967,68.26842101214504,3999,11009,10,2,154
43.720168914166145,45.70861428754569,62.39219195445303,68.26842101214504,3999,11009,10,2,155
43.720168914166145,45.70861428754569,62.38772877022967,68.26842101214504,3999,11009,10,2,156
43.720168914166145,45.70861428754569,62.39219195445303,68.26842101214504,3999,11009,10,2,157
43.720168914166145,45.70861428754569,62.38772877022967,68.26842101214504,3999,11009,10,2,158
43.720168914166145,45.70861428754569,62.39219195445303,68.26912549255536,3999,11009,10,2,159
43.720168914166145,45.70861428754569,62.38772877022967,68.26912549255536,3999,11009,10,2,160
43.720168914166145,45.70861428754569,62.39219195445303,68.26842101214504,3999,11009,10,2,161
43.720168914166145,45.70861428754569,62.39219195445303,68.26842101214504,3999,11009,10,2,162
43.720168914166145,45.70861428754569,62.39219195445303,68.26842101214504,3999,11009,10,2,163
43.720168914166145,45.70861428754569,62.38772877022967,68.26842101214504,3999,11009,10,2,164
43.720168914166145,45.70861428754569,62.38772877022967,68.26842101214504,3999,11009,10,2,165
43.720168914166145,45.70861428754569,62.38772877022967,68.26842101214504,3999,11009,10,2,166
43.720168914166145,45.70861428754569,62.38772877022967,68.26842101214504,3999,11009,10,2,167
43.720168914166145,45.70861428754569,62.38772877022967,68.26842101214504,3999,11009,10,2,168
43.720168914166145,45.70861428754569,62.38731017379233,68.2675492903863,3999,11009,10,2,169
43.720168914166145,45.70861428754569,62.38731017379233,68.2675492903863,3999,11009,10,2,170
43.720168914166145,45.70861428754569,62.39219195445303,68.26842101214504,3999,11009,10,2,171
43.720168914166145,45.70861428754569,62.39219195445303,68.26842101214504,3999,11009,10,2,172
43.720168914166145,45.70861428754569,62.39201020546909,68.26842101214504,3999,11009,10,2,173
43.720168914166145,45.70861428754569,62.39201020546909,68.26771682443992,3999,11009,10,2,174
43.720168914166145,45.70861428754569,62.39201020546909,68.26771682443992,3999,11009,10,2,175
43.720168914166145,45.70861428754569,62.38772877022967,68.26842101214504,3999,11009,10,2,176
43.720168914166145,45.70861428754569,62.38772877022967,68.26842101214504,3999,11009,10,2,177
43.720168914166145,45.70861428754569,62.38772877022967,68.26842101214504,3999,11009,10,2,178
43.720168914166145,45.70861428754569,62.38772877022967,68.26771682443992,3999,11009,10,2,179
43.720168914166145,45.70861428754569,62.38772877022967,68.26771682443992,3999,11009,10,2,180
43.720168914166145,45.70861428754569,62.387547141196094,68.2675492903863,3999,11009,10,2,181
43.720168914166145,45.70861428754569,62.38731017379233,68.2675492903863,3999,11009,10,2,182
43.720168914166145,45.70861428754569,62.387547141196094,68.2675492903863,3999,11009,10,2,183
43.720168914166145,45.70861428754569,62.38772877022967,68.26842101214504,3999,11009,10,2,184
43.720168914166145,45.70861428754569,62.38772877022967,68.26842101214504,3999,11009,10,2,185
43.720168914166145,45.70861428754569,62.38772877022967,68.26842101214504,3999,11009,10,2,186
43.720168914166145,45.70861428754569,62.38772877022967,68.26842101214504,3999,11009,10,2,187
43.720168914166145,45.70861428754569,62.38772877022967,68.26842101214504,3999,11009,10,2,188
43.720168914166145,45.70861428754569,62.39219195445303,68.26842101214504,3999,11009,10,2,189
43.720168914166145,45.70861428754569,62.39219195445303,68.27289119727331,3999,10753,10,2,190
43.720168914166145,45.70861428754569,62.39219195445303,68.27289119727331,3999,10753,10,2,191
43.720168914166145,45.70861428754569,62.388476349178795,68.26842101214504,3999,11009,10,2,192
43.720168914166145,45.70861428754569,62.387547141196094,68.26810869874838,3999,11009,10,2,193
43.720168914166145,45.70861428754569,62.387547141196094,68.26810869874838,3999,11009,10,2,194
43.720168914166145,45.70861428754569,62.38772877022967,68.26842101214504,3999,11009,10,2,195
43.720168914166145,45.70861428754569,62.38772877022967,68.26842101214504,3999,10753,10,2,196
43.720168914166145,45.70861428754569,62.38772877022967,68.26842101214504,3999,10753,10,2,197
43.720168914166145,45.70861428754569,62.38772877022967,68.26842101214504,3999,10753,10,2,198
43.720168914166145,45.70861428754569,62.38731017379233,68.2675492903863,3999,10753,10,2,199
43.720168914166145,45.70861428754569,62.38731017379233,68.2675492903863,3999,10753,10,2,200
43.720168914166145,45.70861428754569,62.38772877022967,68.26771682443992,3999,10753,10,2,201
43.720168914166145,45.70861428754569,62.39219195445303,68.26873320954043,3999,10753,10,2,202
43.720168914166145,45.70861428754569,62.39219195445303,68.26771682443992,3999,10753,10,2,203
43.720168914166145,45.70861428754569,62.38772877022967,68.26842101214504,3999,10753,10,2,204
43.720168914166145,45.70861428754569,62.38772877022967,68.26842101214504,3999,10753,10,2,205
43.720168914166145,45.70861428754569,62.38772877022967,68.26842101214504,3999,10753,10,2,206
43.720168914166145,45.70861428754569,62.38772877022967,68.26842101214504,3999,10753,10,2,207
43.720168914166145,45.70861428754569,62.38731017379233,68.2675492903863,3999,10753,10,2,208
43.720168914166145,45.70861428754569,62.38731017379233,68.2675492903863,3999,10753,10,2,209
43.720168914166145,45.70861428754569,62.387547141196094,68.26810869874838,3999,10753,10,2,210
43.720168914166145,45.70861428754569,62.387547141196094,68.26810869874838,3999,10753,10,2,211
43.720168914166145,45.70861428754569,62.39219195445303,68.26842101214504,3999,10753,10,2,212
43.720168914166145,45.70861428754569,62.39219195445303,68.26842101214504,3999,10753,10,2,213
43.720168914166145,45.70861428754569,62.39219195445303,68.26842101214504,3999,10753,10,2,214
43.720168914166145,45.70861428754569,62.39219195445303,68.26842101214504,3999,10753,10,2,215
43.720168914166145,45.70861428754569,62.39219195445303,68.26842101214504,3999,10753,10,2,216
43.720168914166145,45.70861428754569,62.38772877022967,68.26842101214504,3999,10753,10,2,217
43.720168914166145,45.70861428754569,62.38772877022967,68.26842101214504,3999,10753,10,2,218
43.720168914166145,45.70861428754569,62.38772877022967,68.26842101214504,3999,10753,10,2,219
43.720168914166145,45.70861428754569,62.388476349178795,68.26912549255536,3999,10753,10,2,220
43.720168914166145,45.70861428754569,62.38772877022967,68.26842101214504,3999,10753,10,2,221
43.720168914166145,45.70861428754569,62.38772877022967,68.26842101214504,3999,10753,10,2,222
43.720168914166145,45.70861428754569,62.38772877022967,68.26842101214504,3999,10753,10,2,223
43.720168914166145,45.70861428754569,62.387910341966055,68.26873320954043,3999,10753,10,2,224
43.720168914166145,45.70861428754569,62.387910341966055,68.26873320954043,3999,10753,10,2,225
43.720168914166145,45.70861428754569,62.38772877022967,68.26771682443992,3999,10753,10,2,226
43.720168914166145,45.70861428754569,62.38731017379233,68.2675492903863,3999,10753,10,2,227
43.720168914166145,45.70861428754569,62.38772877022967,68.26771682443992,3999,10753,10,2,228
43.720168914166145,45.70861428754569,62.38731017379233,68.26771682443992,3999,10753,10,2,229
43.720168914166145,45.70861428754569,62.38772877022967,68.26842101214504,3999,10753,10,2,230
43.720168914166145,45.70861428754569,62.38731017379233,68.26771682443992,3999,10753,10,2,231
43.720168914166145,45.70861428754569,62.388476349178795,68.26842101214504,3999,10753,10,2,232
43.720168914166145,45.70861428754569,62.38772877022967,68.26842101214504,3999,10753,10,2,233
43.720168914166145,45.70861428754569,62.38772877022967,68.26842101214504,3999,10753,10,2,234
43.720168914166145,45.70861428754569,62.38772877022967,68.26842101214504,3999,10753,10,2,235
43.720168914166145,45.70861428754569,62.38772877022967,68.26842101214504,3999,10497,10,2,236
43.720168914166145,45.70861428754569,62.38772877022967,68.26842101214504,3999,10497,10,2,237
43.720168914166145,45.70861428754569,62.38772877022967,68.26842101214504,3999,10497,10,2,238
43.720168914166145,45.70861428754569,62.38772877022967,68.26842101214504,3999,10497,10,2,239
43.720168914166145,45.70861428754569,62.38772877022967,68.26842101214504,3999,10497,10,2,240
43.720168914166145,45.70861428754569,62.38679957338133,68.26740422883051,3999,10497,10,2,241
43.720168914166145,45.70861428754569,62.38772877022967,68.26842101214504,3999,10497,10,2,242
43.720168914166145,45.70861428754569,62.386981510573676,68.26771682443992,3999,10497,10,2,243
43.720168914166145,45.70861428754569,62.38772877022967,68.26842101214504,3999,10497,10,2,244
43.720168914166145,45.70861428754569,62.386981510573676,68.2682536695537,3999,10497,10,2,245
43.720168914166145,45.70861428754569,62.38772877022967,68.26842101214504,3999,10497,10,2,246
43.720168914166145,45.70861428754569,62.387547141196094,68.2682536695537,3999,10497,10,2,247
43.720168914166145,45.70861428754569,62.38772877022967,68.26842101214504,3999,10753,10,2,248
43.720168914166145,45.70861428754569,62.387547141196094,68.26810869874838,3999,10753,10,2,249
43.720168914166145,45.70861428754569,62.38772877022967,68.26771682443992,3999,10753,10,2,250
43.720168914166145,45.70861428754569,62.38772877022967,68.26771682443992,3999,10753,10,2,251
43.720168914166145,45.70861428754569,62.38772877022967,68.26842101214504,3999,10753,10,2,252
43.720168914166145,45.70861428754569,62.38772877022967,68.26842101214504,3999,10753,10,2,253
43.720168914166145,45.70861428754569,62.38772877022967,68.26842101214504,3999,10753,10,2,254
43.720168914166145,45.70861428754569,62.38772877022967,68.26842101214504,3999,10497,10,2,255
43.720168914166145,45.70861428754569,62.38772877022967,68.26842101214504,3999,10497,10,2,0
43.720168914166145,45.70861428754569,62.39144474825241,68.26810869874838,3999,10497,10,2,1
43.720168914166145,45.70861428754569,62.39201020546909,68.26810869874838,3999,10497,10,2,2
43.720168914166145,45.70861428754569,62.39201020546909,68.27289119727331,3999,10497,10,2,3
43.720168914166145,45.70861428754569,62.38772877022967,68.27289119727331,3999,10497,10,2,4
43.720168914166145,45.70861428754569,62.38772877022967,68.26842101214504,3999,10497,10,2,5
43.720168914166145,45.70861428754569,62.38772877022967,68.26842101214504,3999,10497,10,2,6
43.720168914166145,45.70861428754569,62.38772877022967,68.26395083428345,3999,10497,10,2,7
43.720168914166145,45.70861428754569,62.38772877022967,68.26842101214504,3999,10497,10,2,8
43.720168914166145,45.70861428754569,62.38772877022967,68.26842101214504,3985,10497,10,2,9
43.720168914166145,45.70861428754569,62.38772877022967,68.26842101214504,3662,10497,10,2,10
43.720168914166145,45.70861428754569,62.38772877022967,68.26842101214504,3151,10497,10,2,11
43.720168914166145,45.70861428754569,62.38772877022967,68.26842101214504,2596,10497,10,2,12
43.720168914166145,45.70861428754569,62.38772877022967,68.26842101214504,2033,10497,10,2,13
43.720168914166145,45.70861428754569,62.38772877022967,68.26842101214504,1490,10497,10,2,14
43.720168914166145,45.70861428754569,62.38772877022967,68.26842101214504,979,10497,10,2,15
43.720168914166145,45.70861428754569,62.38772877022967,68.26842101214504,505,10497,10,2,16
43.720168914166145,45.70861428754569,62.38772877022967,68.26842101214504,95,10497,10,2,17
43.720168914166145,45.70861428754569,62.38772877022967,68.26842101214504,0,10497,10,2,18
43.720168914166145,45.70861428754569,62.38772877022967,68.26842101214504,0,10497,10,2,19
43.720168914166145,45.70861428754569,62.38772877022967,68.26810869874838,0,10497,10,2,20
43.720168914166145,45.70861428754569,62.387547141196094,68.26324660046502,0,10497,10,2,21
43.720168914166145,45.70861428754569,62.38731017379233,68.26307945502076,0,10497,10,2,22
43.720168914166145,45.70861428754569,62.38731017379233,68.26307945502076,0,10497,10,2,23
43.720168914166145,45.70861428754569,62.38731017379233,68.26307945502076,0,10497,10,2,24
43.720168914166145,45.70861428754569,62.38772877022967,68.26395083428345,0,10497,10,2,25
43.720168914166145,45.70861428754569,62.38772877022967,68.26395083428345,0,10497,10,2,26
43.720168914166145,45.70861428754569,62.38772877022967,68.26395083428345,0,10497,10,2,27
43.720168914166145,45.70861428754569,62.38772877022967,68.26395083428345,0,10497,10,2,28
43.720168914166145,45.70861428754569,62.38772877022967,68.26740422883051,0,10497,10,2,29
43.720168914166145,45.70861428754569,62.38772877022967,68.26842101214504,0,10497,10,2,30
43.720168914166145,45.70861428754569,62.38772877022967,68.26842101214504,0,10497,10,2,31
43.720168914166145,45.70861428754569,62.38772877022967,68.26395083428345,0,10497,10,2,32
43.720168914166145,45.70861428754569,62.38772877022967,68.26395083428345,0,10497,10,2,33
43.720168914166145,45.70861428754569,62.39219195445303,68.26842101214504,0,10497,10,2,34
43.720168914166145,45.70861428754569,62.39219195445303,68.26842101214504,0,10497,10,2,35
43.720168914166145,45.70861428754569,62.39219195445303,68.26842101214504,0,10497,10,2,36
43.720168914166145,45.70861428754569,62.39219195445303,68.26842101214504,0,10497,10,2,37
43.720168914166145,45.70861428754569,62.39219195445303,68.26842101214504,0,10497,10,2,38
43.720168914166145,45.70861428754569,62.388476349178795,68.26395083428345,0,10497,10,2,39
43.720168914166145,45.70861428754569,62.38308408588476,68.26363863359603,0,10497,10,2,40
43.720168914166145,45.70861428754569,62.38308408588476,68.26363863359603,0,10497,10,2,41
43.720168914166145,45.70861428754569,62.39219195445303,68.26842101214504,0,10497,10,2,42
43.720168914166145,45.70861428754569,62.39219195445303,68.26842101214504,0,10497,10,2,43
43.720168914166145,45.70861428754569,62.38772877022967,68.26842101214504,0,10497,10,2,44
43.720168914166145,45.70861428754569,62.38772877022967,68.26842101214504,0,10497,10,2,45
43.720168914166145,45.70861428754569,62.38772877022967,68.26395083428345,0,10497,10,2,46
43.720168914166145,45.70861428754569,62.38731017379233,68.26307945502076,0,10497,10,2,47
43.720168914166145,45.70861428754569,62.387547141196094,68.26395083428345,0,10497,10,2,48
43.720168914166145,45.70861428754569,62.387547141196094,68.26810869874838,0,10497,10,2,49
43.720168914166145,45.70861428754569,62.38772877022967,68.26842101214504,0,10497,10,2,50
43.720168914166145,45.70861428754569,62.38772877022967,68.26842101214504,0,10497,10,2,51
43.720168914166145,45.70861428754569,62.38772877022967,68.26842101214504,0,10497,10,2,52
43.720168914166145,45.70861428754569,62.38731017379233,68.26307945502076,0,10497,10,2,53
43.720168914166145,45.70861428754569,62.38731017379233,68.26307945502076,0,10497,10,2,54
43.720168914166145,45.70861428754569,62.38731017379233,68.26307945502076,0,10497,10,2,55
43.720168914166145,45.70861428754569,62.38731017379233,68.26307945502076,0,10497,10,2,56
43.720168914166145,45.70861428754569,62.38772877022967,68.26842101214504,0,10497,10,2,57
43.720168914166145,45.70861428754569,62.387547141196094,68.26810869874838,0,10497,10,2,58
43.720168914166145,45.70861428754569,62.38772877022967,68.26810869874838,0,10497,10,2,59
43.720168914166145,45.70861428754569,62.38772877022967,68.26810869874838,0,10497,10,2,60
43.720168914166145,45.70861428754569,62.38772877022967,68.26810869874838,0,10497,10,2,61
43.720168914166145,45.70861428754569,62.38772877022967,68.26842101214504,0,10497,10,2,62
43.720168914166145,45.70861428754569,62.38772877022967,68.26842101214504,0,10497,10,2,63
43.720168914166145,45.70861428754569,62.38772877022967,68.26842101214504,0,10497,10,2,64
43.720168914166145,45.70861428754569,62.38772877022967,68.26842101214504,0,10497,10,2,65
43.720168914166145,45.70861428754569,62.38772877022967,68.26842101214504,0,10497,10,2,66
43.720168914166145,45.70861428754569,62.38679957338133,68.26810869874838,0,10497,10,2,67
43.720168914166145,45.70861428754569,62.38679957338133,68.26395083428345,0,10497,10,2,68
43.720168914166145,45.70861428754569,62.38772877022967,68.26395083428345,0,10497,10,2,69
43.720168914166145,45.70861428754569,62.38772877022967,68.26810869874838,0,10497,10,2,70
43.720168914166145,45.70861428754569,62.38731017379233,68.26810869874838,0,10497,10,2,71
43.720168914166145,45.70861428754569,62.38731017379233,68.26810869874838,0,10497,10,2,72
43.720168914166145,45.70861428754569,62.38731017379233,68.26740422883051,0,10497,10,2,73
43.720168914166145,45.70861428754569,62.38772877022967,68.26740422883051,0,10497,10,2,74
43.720168914166145,45.70861428754569,62.38772877022967,68.26740422883051,0,10497,10,2,75
43.720168914166145,45.70861428754569,62.38772877022967,68.2646553608253,0,10497,10,2,76
43.720168914166145,45.70861428754569,62.38772877022967,68.26842101214504,0,10497,10,2,77
43.720168914166145,45.70861428754569,62.38772877022967,68.2646553608253,0,10497,10,2,78
43.720168914166145,45.70861428754569,62.38772877022967,68.26395083428345,0,10497,10,2,79
43.720168914166145,45.70861428754569,62.38772877022967,68.26395083428345,0,10497,10,2,80
43.720168914166145,45.70861428754569,62.38772877022967,68.26395083428345,0,10497,10,2,81
43.720168914166145,45.70861428754569,62.38772877022967,68.26395083428345,0,10497,10,2,82
43.720168914166145,45.70861428754569,62.387547141196094,68.26363863359603,0,10497,10,2,83
43.720168914166145,45.70861428754569,62.387547141196094,68.26363863359603,0,10497,10,2,84
43.720168914166145,45.70861428754569,62.38772877022967,68.26363863359603,0,10497,10,2,85
43.720168914166145,45.70861428754569,62.39219195445303,68.26929286246596,0,10497,10,2,86
43.720168914166145,45.70861428754569,62.38772877022967,68.26395083428345,0,10497,10,2,87
43.720168914166145,45.70861428754569,62.38772877022967,68.26842101214504,0,10497,10,2,88
43.720168914166145,45.70861428754569,62.38772877022967,68.26842101214504,0,10497,10,2,89
43.720168914166145,45.70861428754569,62.38772877022967,68.26842101214504,0,10497,10,2,90
43.720168914166145,45.70861428754569,62.38772877022967,68.26395083428345,0,10497,10,2,91
43.720168914166145,45.70861428754569,62.38772877022967,68.26395083428345,0,10497,10,2,92
43.720168914166145,45.70861428754569,62.38772877022967,68.26395083428345,0,10497,10,2,93
43.720168914166145,45.70861428754569,62.38772877022967,68.26395083428345,0,10497,10,2,94
43.720168914166145,45.70861428754569,62.38772877022967,68.26395083428345,0,10497,10,2,95
43.720168914166145,45.70861428754569,62.38772877022967,68.26842101214504,0,10497,10,2,96
43.720168914166145,45.70861428754569,62.38772877022967,68.26842101214504,0,10497,10,2,97
43.720168914166145,45.70861428754569,62.38772877022967,68.26842101214504,0,10497,10,2,98
43.720168914166145,45.70861428754569,62.38772877022967,68.26842101214504,0,10497,10,2,99
43.720168914166145,45.70861428754569,62.38772877022967,68.26842101214504,0,10497,10,2,100
43.720168914166145,45.70861428754569,62.38772877022967,68.26842101214504,0,10497,10,2,101
43.720168914166145,45.70861428754569,62.38772877022967,68.26842101214504,0,10497,10,2,102
43.720168914166145,45.70861428754569,62.39219195445303,68.26842101214504,0,10497,10,2,103
43.720168914166145,45.70861428754569,62.39219195445303,68.26842101214504,0,10497,10,2,104
43.720168914166145,45.70861428754569,62.39219195445303,68.26842101214504,0,10497,10,2,105
43.720168914166145,45.70861428754569,62.39201020546909,68.26810869874838,0,10497,10,2,106
43.720168914166145,45.70861428754569,62.39201020546909,68.26810869874838,0,10497,10,2,107
43.720168914166145,45.70861428754569,62.39201020546909,68.26842101214504,0,10497,10,2,108
43.720168914166145,45.70861428754569,62.38772877022967,68.26842101214504,0,10497,10,2,109
43.720168914166145,45.70861428754569,62.38772877022967,68.26842101214504,0,10497,10,2,110
43.720168914166145,45.70861428754569,62.38731017379233,68.26771682443992,0,10497,10,2,111
43.720168914166145,45.70861428754569,62.38731017379233,68.2675492903863,0,10497,10,2,112
43.720168914166145,45.70861428754569,62.38731017379233,68.2675492903863,0,10497,10,2,113
43.720168914166145,45.70861428754569,62.387547141196094,68.26426291901183,0,10497,10,2,114
43.720168914166145,45.70861428754569,62.387547141196094,68.26426291901183,0,10497,10,2,115
43.720168914166145,45.70861428754569,62.38772877022967,68.26426291901183,0,10497,10,2,116
43.720168914166145,45.70861428754569,62.38638112857576,68.26307945502076,0,10497,10,2,117
43.720168914166145,45.70861428754569,62.38772877022967,68.26842101214504,0,10497,10,2,118
43.720168914166145,45.70861428754569,62.38772877022967,68.26842101214504,0,10497,10,2,119
43.720168914166145,45.70861428754569,62.38772877022967,68.26842101214504,0,10497,10,2,120
43.720168914166145,45.70861428754569,62.38772877022967,68.26842101214504,0,10497,10,2,121
43.720168914166145,45.70861428754569,62.387547141196094,68.26363863359603,0,10497,10,2,122
43.720168914166145,45.70861428754569,62.38772877022967,68.26395083428345,0,10497,10,2,123
43.720168914166145,45.70861428754569,62.38772877022967,68.26395083428345,0,10497,10,2,124
43.720168914166145,45.70861428754569,62.38772877022967,68.26842101214504,0,10497,10,2,125
43.720168914166145,45.70861428754569,62.388476349178795,68.26842101214504,0,10497,10,2,126
43.720168914166145,45.70861428754569,62.38772877022967,68.26842101214504,0,10497,10,2,127
43.720168914166145,45.70861428754569,62.38772877022967,68.26842101214504,0,10497,10,2,128
43.720168914166145,45.70861428754569,62.38772877022967,68.26842101214504,0,10497,10,2,129
43.720168914166145,45.70861428754569,62.38772877022967,68.26395083428345,0,10497,10,2,130
43.720168914166145,45.70861428754569,62.38772877022967,68.26395083428345,0,10497,10,2,131
43.720168914166145,45.70861428754569,62.38772877022967,68.26395083428345,0,10497,10,2,132
43.720168914166145,45.70861428754569,62.38772877022967,68.26740422883051,0,10497,10,2,133
43.720168914166145,45.70861428754569,62.38772877022967,68.26842101214504,0,10497,10,2,134
43.720168914166145,45.70861428754569,62.38731017379233,68.26740422883051,0,10497,10,2,135
43.720168914166145,45.70861428754569,62.38772877022967,68.26395083428345,0,10497,10,2,136
43.720168914166145,45.70861428754569,62.38772877022967,68.26395083428345,0,10497,10,2,137
43.720168914166145,45.70861428754569,62.38772877022967,68.26395083428345,0,10497,10,2,138
43.720168914166145,45.70861428754569,62.38772877022967,68.26395083428345,0,10497,10,2,139
43.720168914166145,45.70861428754569,62.38772877022967,68.26395083428345,0,10497,10,2,140
43.720168914166145,45.70861428754569,62.38772877022967,68.2675492903863,0,10497,10,2,141
43.720168914166145,45.70861428754569,62.38772877022967,68.26842101214504,0,10497,10,2,142
43.720168914166145,45.70861428754569,62.39261095183883,68.26912549255536,0,10497,10,2,143
43.720168914166145,45.70861428754569,62.39261095183883,68.26912549255536,0,10497,10,2,144
43.720168914166145,45.70861428754569,62.38805764077555,68.2675492903863,0,10497,10,2,145
43.720168914166145,45.70861428754569,62.38772877022967,68.2675492903863,0,10497,10,2,146
43.720168914166145,45.70861428754569,62.38772877022967,68.26395083428345,0,10497,10,2,147
43.720168914166145,45.70861428754569,62.38772877022967,68.26395083428345,0,10497,10,2,148
43.720168914166145,45.70861428754569,62.38731017379233,68.26307945502076,0,10497,10,2,149
43.720168914166145,45.70861428754569,62.38731017379233,68.26307945502076,0,10497,10,2,150
43.720168914166145,45.70861428754569,62.39219195445303,68.26842101214504,0,10497,10,2,151
43.720168914166145,45.70861428754569,62.39219195445303,68.26842101214504,0,10497,10,2,152
43.720168914166145,45.70861428754569,62.39219195445303,68.26842101214504,0,10497,10,2,153
43.720168914166145,45.70861428754569,62.38772877022967,68.26395083428345,0,10497,10,2,154
43.720168914166145,45.70861428754569,62.38772877022967,68.26842101214504,0,10497,10,2,155
43.720168914166145,45.70861428754569,62.38772877022967,68.26810869874838,0,10497,10,2,156
43.720168914166145,45.70861428754569,62.387910341966055,68.26810869874838,0,10497,10,2,157
43.720168914166145,45.70861428754569,62.39201020546909,68.26810869874838,0,10497,10,2,158
43.720168914166145,45.70861428754569,62.387910341966055,68.26426291901183,0,10497,10,2,159
43.720168914166145,45.70861428754569,62.38772877022967,68.26395083428345,0,10497,10,2,160
43.720168914166145,45.70861428754569,62.38731017379233,68.26307945502076,0,10497,10,2,161
43.720168914166145,45.70861428754569,62.38731017379233,68.26307945502076,0,10497,10,2,162
43.720168914166145,45.70861428754569,62.38731017379233,68.26380545320887,0,10497,10,2,163
43.720168914166145,45.70861428754569,62.38772877022967,68.26842101214504,0,10497,10,2,164
43.720168914166145,45.70861428754569,62.39219195445303,68.26842101214504,0,10497,10,2,165
43.720168914166145,45.70861428754569,62.39219195445303,68.26842101214504,0,10497,10,2,166
43.720168914166145,45.70861428754569,62.39219195445303,68.26842101214504,0,10497,10,2,167
43.720168914166145,45.70861428754569,62.38772877022967,68.26395083428345,0,10497,10,2,168
43.720168914166145,45.70861428754569,62.38772877022967,68.26395083428345,0,10497,10,2,169
43.720168914166145,45.70861428754569,62.38772877022967,68.26842101214504,0,10497,10,2,170
43.720168914166145,45.70861428754569,62.38772877022967,68.26842101214504,0,10497,10,2,171
43.720168914166145,45.70861428754569,62.38772877022967,68.2646553608253,0,10497,10,2,172
43.720168914166145,45.70861428754569,62.3865630260557,68.26276732515326,0,10497,10,2,173
43.720168914166145,45.70861428754569,62.38772877022967,68.2646553608253,0,10497,10,2,174
43.720168914166145,45.70861428754569,62.38772877022967,68.26395083428345,0,10497,10,2,175
43.720168914166145,45.70861428754569,62.38772877022967,68.26842101214504,0,10497,10,2,176
43.720168914166145,45.70861428754569,62.38772877022967,68.26395083428345,0,10497,10,2,177
43.720168914166145,45.70861428754569,62.38772877022967,68.26842101214504,0,10497,10,2,178
43.720168914166145,45.70861428754569,62.38772877022967,68.26842101214504,0,10497,10,2,179
43.720168914166145,45.70861428754569,62.388476349178795,68.26842101214504,0,10497,10,2,180
43.720168914166145,45.70861428754569,62.388476349178795,68.26842101214504,0,10497,10,2,181
43.720168914166145,45.70861428754569,62.38772877022967,68.26842101214504,0,10497,10,2,182
43.720168914166145,45.70861428754569,62.38772877022967,68.26842101214504,0,10753,10,2,183
43.720168914166145,45.70861428754569,62.38772877022967,68.26395083428345,0,10753,10,2,184
43.720168914166145,45.70861428754569,62.38772877022967,68.26395083428345,0,10753,10,2,185
43.720168914166145,45.70861428754569,62.38772877022967,68.26842101214504,0,10753,10,2,186
43.720168914166145,45.70861428754569,62.3881474273018,68.26842101214504,0,10753,10,2,187
43.720168914166145,45.70861428754569,62.3881474273018,68.26842101214504,0,10497,10,2,188
43.720168914166145,45.70861428754569,62.38731017379233,68.26307945502076,0,10497,10,2,189
43.720168914166145,45.70861428754569,62.38731017379233,68.26307945502076,0,10497,10,2,190
43.720168914166145,45.70861428754569,62.38731017379233,68.26307945502076,0,10497,10,2,191
43.720168914166145,45.70861428754569,62.38772877022967,68.26842101214504,0,10497,10,2,192
43.720168914166145,45.70861428754569,62.39219195445303,68.26842101214504,0,10497,10,2,193
43.720168914166145,45.70861428754569,62.39219195445303,68.26842101214504,0,10753,10,2,194
43.720168914166145,45.70861428754569,62.38772877022967,68.26842101214504,0,10753,10,2,195
43.720168914166145,45.70861428754569,62.38772877022967,68.26771682443992,0,10753,10,2,196
43.720168914166145,45.70861428754569,62.38772877022967,68.26771682443992,0,10753,10,2,197
43.720168914166145,45.70861428754569,62.38772877022967,68.26842101214504,0,10753,10,2,198
43.720168914166145,45.70861428754569,62.38772877022967,68.26842101214504,0,10753,10,2,199
43.720168914166145,45.70861428754569,62.38772877022967,68.26842101214504,0,10753,10,2,200
43.720168914166145,45.70861428754569,62.38772877022967,68.26395083428345,0,10753,10,2,201
43.720168914166145,45.70861428754569,62.38772877022967,68.26842101214504,0,10753,10,2,202
43.720168914166145,45.70861428754569,62.388476349178795,68.26842101214504,0,10753,10,2,203
43.720168914166145,45.70861428754569,62.388476349178795,68.26842101214504,0,10753,10,2,204
43.720168914166145,45.70861428754569,62.388476349178795,68.26842101214504,0,10753,10,2,205
43.720168914166145,45.70861428754569,62.38772877022967,68.26842101214504,0,10753,10,2,206
43.720168914166145,45.70861428754569,62.38772877022967,68.26842101214504,0,10753,10,2,207
43.720168914166145,45.70861428754569,62.38772877022967,68.26842101214504,0,10753,10,2,208
43.720168914166145,45.70861428754569,62.38772877022967,68.26842101214504,0,10753,10,2,209
43.720168914166145,45.70861428754569,62.38772877022967,68.26842101214504,0,10753,10,2,210
43.720168914166145,45.70861428754569,62.38772877022967,68.26842101214504,0,10497,10,2,211
43.720168914166145,45.70861428754569,62.38772877022967,68.26842101214504,0,10497,10,2,212
43.720168914166145,45.70861428754569,62.38772877022967,68.26842101214504,0,10497,10,2,213
43.720168914166145,45.70861428754569,62.38772877022967,68.26842101214504,0,10497,10,2,214
43.720168914166145,45.70861428754569,62.38772877022967,68.26842101214504,0,10497,10,2,215
43.720168914166145,45.70861428754569,62.38772877022967,68.26842101214504,0,10753,10,2,216
43.720168914166145,45.70861428754569,62.38772877022967,68.26842101214504,0,10753,10,2,217
43.720168914166145,45.70861428754569,62.38772877022967,68.26842101214504,0,10753,10,2,218
43.720168914166145,45.70861428754569,62.38772877022967,68.26842101214504,0,10753,10,2,219
43.720168914166145,45.70861428754569,62.38772877022967,68.26395083428345,0,10753,10,2,220
43.720168914166145,45.70861428754569,62.38772877022967,68.26395083428345,0,10753,10,2,221
43.720168914166145,45.70861428754569,62.38772877022967,68.26842101214504,0,10753,10,2,222
43.720168914166145,45.70861428754569,62.38772877022967,68.26842101214504,0,10753,10,2,223
43.720168914166145,45.70861428754569,62.38772877022967,68.26810869874838,0,10753,10,2,224
43.720168914166145,45.70861428754569,62.38772877022967,68.26395083428345,0,10753,10,2,225
43.720168914166145,45.70861428754569,62.38772877022967,68.26771682443992,0,10753,10,2,226
43.720168914166145,45.70861428754569,62.38772877022967,68.26395083428345,0,10753,10,2,227
43.720168914166145,45.70861428754569,62.38772877022967,68.26771682443992,0,10753,10,2,228
43.720168914166145,45.70861428754569,62.38731017379233,68.26307945502076,0,10753,10,2,229
43.720168914166145,45.70861428754569,62.387547141196094,68.26810869874838,0,10753,10,2,230
43.720168914166145,45.70861428754569,62.387547141196094,68.26496716331505,0,10753,10,2,231
43.720168914166145,45.70861428754569,62.38772877022967,68.26810869874838,0,10753,10,2,232
43.720168914166145,45.70861428754569,62.38772877022967,68.26842101214504,0,10753,10,2,233
43.720168914166145,45.70861428754569,62.38772877022967,68.26842101214504,0,10753,10,2,234
43.720168914166145,45.70861428754569,62.38772877022967,68.26395083428345,0,10753,10,2,235
43.720168914166145,45.70861428754569,62.38731017379233,68.26395083428345,0,10753,10,2,236
43.720168914166145,45.70861428754569,62.38772877022967,68.26771682443992,0,10753,10,2,237
43.720168914166145,45.70861428754569,62.38772877022967,68.26842101214504,0,10753,10,2,238
43.720168914166145,45.70861428754569,62.38772877022967,68.26842101214504,0,10753,10,2,239
43.720168914166145,45.70861428754569,62.387910341966055,68.26842101214504,0,10753,10,2,240
43.720168914166145,45.70861428754569,62.39219195445303,68.26842101214504,0,10497,10,2,241
43.720168914166145,45.70861428754569,62.387910341966055,68.26842101214504,0,10497,10,2,242
43.720168914166145,45.70861428754569,62.38772877022967,68.26842101214504,0,10497,10,2,243
43.720168914166145,45.70861428754569,62.38772877022967,68.26842101214504,0,10497,10,2,244
43.720168914166145,45.70861428754569,62.39242916314675,68.26898047820303,0,10497,10,2,245
43.720168914166145,45.70861428754569,62.39242916314675,68.26898047820303,0,10753,10,2,246
43.720168914166145,45.70861428754569,62.39219195445303,68.26842101214504,0,10753,10,2,247
43.720168914166145,45.70861428754569,62.38772877022967,68.26842101214504,0,10753,10,2,248
43.720168914166145,45.70861428754569,62.38772877022967,68.26842101214504,0,10753,10,2,249
43.720168914166145,45.70861428754569,62.38772877022967,68.26842101214504,0,10753,10,2,250
43.720168914166145,45.70861428754569,62.38772877022967,68.26842101214504,0,10753,10,2,251
43.720168914166145,45.70861428754569,62.38772877022967,68.26842101214504,0,10753,10,2,252
43.720168914166145,45.70861428754569,62.38772877022967,68.26810869874838,0,10753,10,2,253
43.720168914166145,45.70861428754569,62.38772877022967,68.26771682443992,0,10753,10,2,254
43.720168914166145,45.70861428754569,62.38772877022967,68.26810869874838,0,10753,10,2,255
43.720168914166145,45.70861428754569,62.388476349178795,68.26842101214504,0,10753,10,2,0
43.720168914166145,45.70861428754569,62.388476349178795,68.26842101214504,0,10753,10,2,1
43.720168914166145,45.70861428754569,62.38749170587104,68.26409561204156,0,10753,10,2,2
43.720168914166145,45.70861428754569,62.38749170587104,68.26409561204156,0,10753,10,2,3
43.720168914166145,45.70861428754569,62.38865761274742,68.26426291901183,0,10753,10,2,4
43.720168914166145,45.70861428754569,62.39201020546909,68.26810869874838,0,10753,10,2,5
43.720168914166145,45.70861428754569,62.39201020546909,68.26842101214504,0,10753,10,2,6
43.720168914166145,45.70861428754569,62.38772877022967,68.26810869874838,0,10753,10,2,7
43.720168914166145,45.70861428754569,62.38772877022967,68.26842101214504,0,10753,10,2,8
43.720168914166145,45.70861428754569,62.38772877022967,68.26810869874838,0,10753,10,2,9
43.720168914166145,45.70861428754569,62.39219195445303,68.26842101214504,0,10753,10,2,10
43.720168914166145,45.70861428754569,62.38772877022967,68.26842101214504,0,10753,10,2,11
43.720168914166145,45.70861428754569,62.39219195445303,68.26842101214504,0,10753,10,2,12
43.720168914166145,45.70861428754569,62.38772877022967,68.26842101214504,0,10753,10,2,13
43.720168914166145,45.70861428754569,62.38772877022967,68.26842101214504,0,10753,10,2,14
43.720168914166145,45.70861428754569,62.38772877022967,68.26842101214504,0,10497,10,2,15
43.720168914166145,45.70861428754569,62.38772877022967,68.26810869874838,0,10497,10,2,16
43.720168914166145,45.70861428754569,62.39201020546909,68.26810869874838,0,10753,10,2,17
43.720168914166145,45.70861428754569,62.38772877022967,68.26771682443992,0,10753,10,2,18
43.720168914166145,45.70861428754569,62.38772877022967,68.26810869874838,0,10753,10,2,19
43.720168914166145,45.70861428754569,62.38772877022967,68.26842101214504,0,10753,10,2,20
43.720168914166145,45.70861428754569,62.38772877022967,68.26842101214504,0,10753,10,2,21
43.720168914166145,45.70861428754569,62.39219195445303,68.26842101214504,0,10753,10,2,22
43.720168914166145,45.70861428754569,62.39201020546909,68.26810869874838,0,10753,10,2,23
43.720168914166145,45.70861428754569,62.39201020546909,68.26810869874838,0,10753,10,2,24
43.720168914166145,45.70861428754569,62.38772877022967,68.26810869874838,0,10753,10,2,25
43.720168914166145,45.70861428754569,62.38772877022967,68.26842101214504,0,10753,10,2,26
43.720168914166145,45.70861428754569,62.388476349178795,68.26842101214504,0,10753,10,2,27
43.720168914166145,45.70861428754569,62.388476349178795,68.26363863359603,0,10753,10,2,28
43.720168914166145,45.70861428754569,62.39144474825241,68.26363863359603,0,10753,10,2,29
43.720168914166145,45.70861428754569,62.39219195445303,68.26426291901183,0,10753,10,2,30
43.720168914166145,45.70861428754569,62.39219195445303,68.26842101214504,0,10753,10,2,31
43.720168914166145,45.70861428754569,62.39219195445303,68.26842101214504,0,10753,10,2,32
43.720168914166145,45.70861428754569,62.38772877022967,68.26842101214504,0,10753,10,2,33
43.720168914166145,45.70861428754569,62.387547141196094,68.26810869874838,0,10753,10,2,34
43.720168914166145,45.70861428754569,62.38731017379233,68.26740422883051,0,10753,10,2,35
43.720168914166145,45.70861428754569,62.38731017379233,68.26740422883051,0,10753,10,2,36
43.720168914166145,45.70861428754569,62.38772877022967,68.26395083428345,0,10497,10,2,37
43.720168914166145,45.70861428754569,62.38772877022967,68.26842101214504,0,10497,10,2,38
43.720168914166145,45.70861428754569,62.38772877022967,68.26842101214504,0,10497,10,2,39
43.720168914166145,45.70861428754569,62.38772877022967,68.26842101214504,0,10753,10,2,40
43.720168914166145,45.70861428754569,62.38772877022967,68.26842101214504,0,10753,10,2,41
43.720168914166145,45.70861428754569,62.38772877022967,68.26842101214504,0,10753,10,2,42
43.720168914166145,45.70861428754569,62.38772877022967,68.26842101214504,0,10753,10,2,43
43.720168914166145,45.70861428754569,62.38772877022967,68.26842101214504,0,10753,10,2,44
43.720168914166145,45.70861428754569,62.38772877022967,68.26842101214504,0,10753,10,2,45
43.720168914166145,45.70861428754569,62.38772877022967,68.26842101214504,0,10753,10,2,46
43.720168914166145,45.70861428754569,62.38772877022967,68.26842101214504,0,10753,10,2,47
43.720168914166145,45.70861428754569,62.387547141196094,68.26363863359603,0,10753,10,2,48
43.720168914166145,45.70861428754569,62.38731017379233,68.26324660046502,0,10753,10,2,49
43.720168914166145,45.70861428754569,62.38731017379233,68.26324660046502,0,10753,10,2,50
43.720168914166145,45.70861428754569,62.38772877022967,68.26395083428345,0,10753,10,2,51
43.720168914166145,45.70861428754569,62.38772877022967,68.26395083428345,0,10753,10,2,52
43.720168914166145,45.70861428754569,62.38772877022967,68.26426291901183,0,10753,10,2,53
43.720168914166145,45.70861428754569,62.387910341966055,68.26426291901183,0,10753,10,2,54
43.720168914166145,45.70861428754569,62.387910341966055,68.26842101214504,0,10753,10,2,55
43.720168914166145,45.70861428754569,62.38772877022967,68.26842101214504,0,10753,10,2,56
43.720168914166145,45.70861428754569,62.38772877022967,68.26842101214504,0,10753,10,2,57
43.720168914166145,45.70861428754569,62.3881474273018,68.26482234205716,0,10753,10,2,58
43.720168914166145,45.70861428754569,62.388476349178795,68.26482234205716,0,10753,10,2,59
43.720168914166145,45.70861428754569,62.3881474273018,68.26482234205716,0,10753,10,2,60
43.720168914166145,45.70861428754569,62.387910341966055,68.26842101214504,0,10753,10,2,61
43.720168914166145,45.70861428754569,62.38772877022967,68.26842101214504,0,10753,10,2,62
43.720168914166145,45.70861428754569,62.387547141196094,68.26810869874838,0,10753,10,2,63
43.720168914166145,45.70861428754569,62.387547141196094,68.26395083428345,0,10753,10,2,64
43.720168914166145,45.70861428754569,62.38772877022967,68.26395083428345,0,10753,10,2,65
43.720168914166145,45.70861428754569,62.38772877022967,68.26842101214504,0,10753,10,2,66
43.720168914166145,45.70861428754569,62.38772877022967,68.26842101214504,0,10753,10,2,67
43.720168914166145,45.70861428754569,62.38772877022967,68.26842101214504,0,10753,10,2,68
43.720168914166145,45.70861428754569,62.39219195445303,68.26842101214504,0,10753,10,2,69
43.720168914166145,45.70861428754569,62.39219195445303,68.26842101214504,0,10753,10,2,70
43.720168914166145,45.70861428754569,62.39201020546909,68.26810869874838,0,10753,10,2,71
43.720168914166145,45.70861428754569,62.39201020546909,68.26810869874838,0,10753,10,2,72
43.720168914166145,45.70861428754569,62.39201020546909,68.26810869874838,0,10753,10,2,73
43.720168914166145,45.70861428754569,62.38772877022967,68.26395083428345,0,10753,10,2,74
43.720168914166145,45.70861428754569,62.38772877022967,68.26395083428345,0,10753,10,2,75
43.720168914166145,45.70861428754569,62.38772877022967,68.26810869874838,0,10753,10,2,76
43.720168914166145,45.70861428754569,62.38772877022967,68.26842101214504,0,10753,10,2,77
43.720168914166145,45.70861428754569,62.38772877022967,68.26842101214504,0,10753,10,2,78
43.720168914166145,45.70861428754569,62.38772877022967,68.26842101214504,0,10753,10,2,79
43.720168914166145,45.70861428754569,62.38772877022967,68.26842101214504,0,10753,10,2,80
43.720168914166145,45.70861428754569,62.388476349178795,68.26842101214504,0,10753,10,2,81
43.720168914166145,45.70861428754569,62.39201020546909,68.26912549255536,0,10753,10,2,82
43.720168914166145,45.70861428754569,62.39201020546909,68.26842101214504,0,10753,10,2,83
43.720168914166145,45.70861428754569,62.38772877022967,68.26842101214504,0,10753,10,2,84
43.720168914166145,45.70861428754569,62.38772877022967,68.26842101214504,0,10753,10,2,85
43.720168914166145,45.70861428754569,62.38772877022967,68.26842101214504,0,10753,10,2,86
43.720168914166145,45.70861428754569,62.38772877022967,68.26842101214504,0,10753,10,2,87
43.720168914166145,45.70861428754569,62.387910341966055,68.26842101214504,0,10753,10,2,88
43.720168914166145,45.70861428754569,62.38772877022967,68.26842101214504,0,10753,10,2,89
43.720168914166145,45.70861428754569,62.38772877022967,68.26842101214504,0,10753,10,2,90
43.720168914166145,45.70861428754569,62.38772877022967,68.26842101214504,0,10753,10,2,91
43.720168914166145,45.70861428754569,62.38772877022967,68.26842101214504,0,10753,10,2,92
43.720168914166145,45.70861428754569,62.38772877022967,68.26842101214504,0,10753,10,2,93
43.720168914166145,45.70861428754569,62.38772877022967,68.26842101214504,0,10753,10,2,94
43.720168914166145,45.70861428754569,62.38772877022967,68.26842101214504,0,10753,10,2,95
43.720168914166145,45.70861428754569,62.38772877022967,68.26842101214504,0,10753,10,2,96
43.720168914166145,45.70861428754569,62.38772877022967,68.26842101214504,0,10753,10,2,97
43.720168914166145,45.70861428754569,62.38772877022967,68.26842101214504,0,10753,10,2,98
43.720168914166145,45.70861428754569,62.38772877022967,68.26842101214504,0,10753,10,2,99
43.720168914166145,45.70861428754569,62.38772877022967,68.26842101214504,0,10753,10,2,100
43.720168914166145,45.70861428754569,62.38772877022967,68.26842101214504,0,10753,10,2,101
43.720168914166145,45.70861428754569,62.38772877022967,68.26842101214504,0,10753,10,2,102
43.720168914166145,45.70861428754569,62.38772877022967,68.26842101214504,0,10753,10,2,103
43.720168914166145,45.70861428754569,62.38772877022967,68.26842101214504,0,10753,10,2,104
43.720168914166145,45.70861428754569,62.38772877022967,68.26842101214504,0,10753,10,2,105
43.720168914166145,45.70861428754569,62.38772877022967,68.26842101214504,0,10753,10,2,106
43.720168914166145,45.70861428754569,62.38772877022967,68.26842101214504,0,10753,10,2,107
43.720168914166145,45.70861428754569,62.38772877022967,68.26842101214504,0,10753,10,2,108
43.720168914166145,45.70861428754569,62.38772877022967,68.26842101214504,0,10753,10,2,109
43.720168914166145,45.70861428754569,62.38772877022967,68.26842101214504,0,10753,10,2,110
43.720168914166145,45.70861428754569,62.38772877022967,68.26842101214504,0,10753,10,2,111
43.720168914166145,45.70861428754569,62.38772877022967,68.26842101214504,0,10753,10,2,112
43.720168914166145,45.70861428754569,62.38772877022967,68.26842101214504,0,10753,10,2,113
43.720168914166145,45.70861428754569,62.38772877022967,68.26842101214504,0,10753,10,2,114
43.720168914166145,45.70861428754569,62.387547141196094,68.26363863359603,0,10753,10,2,115
43.720168914166145,45.70861428754569,62.387547141196094,68.26363863359603,0,10753,10,2,116
43.720168914166145,45.70861428754569,62.387547141196094,68.26363863359603,0,10753,10,2,117
43.720168914166145,45.70861428754569,62.39201020546909,68.26810869874838,0,10753,10,2,118
43.720168914166145,45.70861428754569,62.38772877022967,68.26842101214504,0,10753,10,2,119
43.720168914166145,45.70861428754569,62.38772877022967,68.26842101214504,0,10753,10,2,120
43.720168914166145,45.70861428754569,62.38772877022967,68.26842101214504,0,10753,10,2,121
43.720168914166145,45.70861428754569,62.39219195445303,68.26842101214504,0,10753,10,2,122
43.720168914166145,45.70861428754569,62.39219195445303,68.27289119727331,0,10753,10,2,123
43.720168914166145,45.70861428754569,62.38772877022967,68.26842101214504,0,10753,10,2,124
43.720168914166145,45.70861428754569,62.38772877022967,68.26842101214504,0,10753,10,2,125
43.720168914166145,45.70861428754569,62.38749170587104,68.2682536695537,0,10753,10,2,126
43.720168914166145,45.70861428754569,62.38772877022967,68.26842101214504,0,10753,10,2,127
43.720168914166145,45.70861428754569,62.38772877022967,68.26842101214504,0,10753,10,2,128
43.720168914166145,45.70861428754569,62.39219195445303,68.26842101214504,0,10753,10,2,129
43.720168914166145,45.70861428754569,62.39219195445303,68.26842101214504,0,10753,10,2,130
43.720168914166145,45.70861428754569,62.39219195445303,68.26842101214504,0,10753,10,2,131
43.720168914166145,45.70861428754569,62.38772877022967,68.26842101214504,0,10753,10,2,132
43.720168914166145,45.70861428754569,62.38772877022967,68.26842101214504,0,10753,10,2,133
43.720168914166145,45.70861428754569,62.38772877022967,68.26873320954043,0,10753,10,2,134
43.720168914166145,45.70861428754569,62.38772877022967,68.26873320954043,0,10753,10,2,135
43.720168914166145,45.70861428754569,62.38772877022967,68.26771682443992,0,10753,10,2,136
43.720168914166145,45.70861428754569,62.38772877022967,68.26771682443992,0,10753,10,2,137
43.720168914166145,45.70861428754569,62.38772877022967,68.26842101214504,0,10753,10,2,138
43.720168914166145,45.70861428754569,62.38772877022967,68.26842101214504,0,10753,10,2,139
43.720168914166145,45.70861428754569,62.38772877022967,68.26842101214504,0,10753,10,2,140
43.720168914166145,45.70861428754569,62.38772877022967,68.26842101214504,0,10753,10,2,141
43.720168914166145,45.70861428754569,62.39201020546909,68.26842101214504,0,10753,10,2,142
43.720168914166145,45.70861428754569,62.39201020546909,68.26842101214504,0,10753,10,2,143
43.720168914166145,45.70861428754569,62.39186363370568,68.27305914733176,0,10753,10,2,144
43.720168914166145,45.70861428754569,62.39186363370568,68.2735956315581,0,10753,10,2,145
43.720168914166145,45.70861428754569,62.39201020546909,68.2735956315581,0,10753,10,2,146
43.720168914166145,45.70861428754569,62.39201020546909,68.26912549255536,0,10753,10,2,147
43.720168914166145,45.70861428754569,62.38772877022967,68.26842101214504,0,10753,10,2,148
43.720168914166145,45.70861428754569,62.38772877022967,68.26912549255536,0,10753,10,2,149
43.720168914166145,45.70861428754569,62.38772877022967,68.26842101214504,0,10753,10,2,150
43.720168914166145,45.70861428754569,62.38731017379233,68.26771682443992,0,10753,10,2,151
43.720168914166145,45.70861428754569,62.38731017379233,68.26771682443992,0,10753,10,2,152
43.720168914166145,45.70861428754569,62.38772877022967,68.26842101214504,0,10753,10,2,153
43.720168914166145,45.70861428754569,62.38772877022967,68.26842101214504,0,10753,10,2,154
43.720168914166145,45.70861428754569,62.38772877022967,68.26842101214504,0,10753,10,2,155
43.720168914166145,45.70861428754569,62.38772877022967,68.27289119727331,0,10753,10,2,156
43.720168914166145,45.70861428754569,62.38772877022967,68.27289119727331,0,10753,10,2,157
43.720168914166145,45.70861428754569,62.38772877022967,68.26842101214504,0,10753,10,2,158
43.720168914166145,45.70861428754569,62.38772877022967,68.26842101214504,0,10753,10,2,159
43.720168914166145,45.70861428754569,62.38772877022967,68.26842101214504,0,10753,10,2,160
43.720168914166145,45.70861428754569,62.38772877022967,68.2675492903863,0,10753,10,2,161
43.720168914166145,45.70861428754569,62.38772877022967,68.26842101214504,0,10753,10,2,162
43.720168914166145,45.70861428754569,62.38772877022967,68.26842101214504,0,10753,10,2,163
43.720168914166145,45.70861428754569,62.38772877022967,68.26842101214504,0,10753,10,2,164
43.720168914166145,45.70861428754569,62.38731017379233,68.26307945502076,0,10753,10,2,165
43.720168914166145,45.70861428754569,62.38731017379233,68.26307945502076,0,10753,10,2,166
43.720168914166145,45.70861428754569,62.38772877022967,68.26842101214504,0,10753,10,2,167
43.720168914166145,45.70861428754569,62.38772877022967,68.26842101214504,0,10753,10,2,168
43.720168914166145,45.70861428754569,62.38772877022967,68.26426291901183,0,10753,10,2,169
43.720168914166145,45.70861428754569,62.38772877022967,68.26426291901183,0,10753,10,2,170
43.720168914166145,45.70861428754569,62.38772877022967,68.26842101214504,0,10753,10,2,171
43.720168914166145,45.70861428754569,62.38772877022967,68.26842101214504,0,10753,10,2,172
43.720168914166145,45.70861428754569,62.38772877022967,68.26842101214504,0,10753,10,2,173
43.720168914166145,45.70861428754569,62.38772877022967,68.26842101214504,0,10753,10,2,174
43.720168914166145,45.70861428754569,62.38772877022967,68.26873320954043,0,10753,10,2,175
43.720168914166145,45.70861428754569,62.38772877022967,68.26873320954043,0,11009,10,2,176
43.720168914166145,45.70861428754569,62.38772877022967,68.26842101214504,0,11009,10,2,177
43.720168914166145,45.70861428754569,62.38772877022967,68.26842101214504,0,11009,10,2,178
43.720168914166145,45.70861428754569,62.39219195445303,68.26842101214504,0,11009,10,2,179
43.720168914166145,45.70861428754569,62.39219195445303,68.26842101214504,0,11009,10,2,180
43.720168914166145,45.70861428754569,62.387547141196094,68.26363863359603,0,11009,10,2,181
43.720168914166145,45.70861428754569,62.387547141196094,68.26363863359603,0,10753,10,2,182
43.720168914166145,45.70861428754569,62.387910341966055,68.26426291901183,0,10753,10,2,183
43.720168914166145,45.70861428754569,62.387910341966055,68.26842101214504,0,10753,10,2,184
43.720168914166145,45.70861428754569,62.388476349178795,68.26842101214504,0,10753,10,2,185
43.720168914166145,45.70861428754569,62.38772877022967,68.26810869874838,0,10753,10,2,186
43.720168914166145,45.70861428754569,62.387547141196094,68.2675492903863,0,10753,10,2,187
43.720168914166145,45.70861428754569,62.387547141196094,68.26810869874838,0,10753,10,2,188
43.720168914166145,45.70861428754569,62.38731017379233,68.2675492903863,0,10753,10,2,189
43.720168914166145,45.70861428754569,62.387547141196094,68.26771682443992,0,10753,10,2,190
43.720168914166145,45.70861428754569,62.38772877022967,68.26771682443992,0,10753,10,2,191
43.720168914166145,45.70861428754569,62.38772877022967,68.26771682443992,0,10753,10,2,192
43.720168914166145,45.70861428754569,62.38772877022967,68.26842101214504,0,10753,10,2,193
43.720168914166145,45.70861428754569,62.38772877022967,68.26395083428345,0,10753,10,2,194
43.720168914166145,45.70861428754569,62.38772877022967,68.26842101214504,0,10753,10,2,195
43.720168914166145,45.70861428754569,62.38772877022967,68.26810869874838,0,11009,10,2,196
43.720168914166145,45.70861428754569,62.38772877022967,68.26810869874838,0,11009,10,2,197
43.720168914166145,45.70861428754569,62.387547141196094,68.26810869874838,0,10753,10,2,198
43.720168914166145,45.70861428754569,62.38772877022967,68.26395083428345,0,10753,10,2,199
43.720168914166145,45.70861428754569,62.38772877022967,68.26324660046502,0,10753,10,2,200
43.720168914166145,45.70861428754569,62.38772877022967,68.26395083428345,0,10753,10,2,201
43.720168914166145,45.70861428754569,62.38772877022967,68.26842101214504,0,10753,10,2,202
43.720168914166145,45.70861428754569,62.38772877022967,68.26842101214504,0,10753,10,2,203
43.720168914166145,45.70861428754569,62.38772877022967,68.26842101214504,0,11009,10,2,204
43.720168914166145,45.70861428754569,62.38772877022967,68.26842101214504,0,11009,10,2,205
43.720168914166145,45.70861428754569,62.38772877022967,68.26842101214504,0,11009,10,2,206
43.720168914166145,45.70861428754569,62.38772877022967,68.26740422883051,0,11009,10,2,207
43.720168914166145,45.70861428754569,62.38772877022967,68.26395083428345,0,11009,10,2,208
43.720168914166145,45.70861428754569,62.38772877022967,68.26740422883051,0,11009,10,2,209
43.720168914166145,45.70861428754569,62.38772877022967,68.26810869874838,0,11009,10,2,210
43.720168914166145,45.70861428754569,62.38772877022967,68.26810869874838,0,10753,10,2,211
43.720168914166145,45.70861428754569,62.38772877022967,68.26842101214504,0,10753,10,2,212
43.720168914166145,45.70861428754569,62.386981510573676,68.26395083428345,0,10753,10,2,213
43.720168914166145,45.70861428754569,62.388476349178795,68.26810869874838,0,10753,10,2,214
43.720168914166145,45.70861428754569,62.38731017379233,68.26395083428345,0,10753,10,2,215
43.720168914166145,45.70861428754569,62.38731017379233,68.26740422883051,0,11009,10,2,216
43.720168914166145,45.70861428754569,62.38731017379233,68.26740422883051,0,11009,10,2,217
43.720168914166145,45.70861428754569,62.387910341966055,68.26740422883051,0,11009,10,2,218
43.720168914166145,45.70861428754569,62.387910341966055,68.2675492903863,0,11009,10,2,219
43.720168914166145,45.70861428754569,62.387910341966055,68.2675492903863,0,11009,10,2,220
43.720168914166145,45.70861428754569,62.388476349178795,68.26912549255536,0,11009,10,2,221
43.720168914166145,45.70861428754569,62.388476349178795,68.26912549255536,0,11009,10,2,222
43.720168914166145,45.70861428754569,62.388476349178795,68.26912549255536,0,11009,10,2,223
43.720168914166145,45.70861428754569,62.38772877022967,68.26771682443992,0,11009,10,2,224
43.720168914166145,45.70861428754569,62.38772877022967,68.26740422883051,0,11009,10,2,225
43.720168914166145,45.70861428754569,62.38772877022967,68.26740422883051,0,11009,10,2,226
43.720168914166145,45.70861428754569,62.38772877022967,68.26395083428345,0,11009,10,2,227
43.720168914166145,45.70861428754569,62.38772877022967,68.26395083428345,0,11009,10,2,228
43.720168914166145,45.70861428754569,62.387547141196094,68.26363863359603,0,10753,10,2,229
43.720168914166145,45.70861428754569,62.387547141196094,68.26363863359603,0,10753,10,2,230
43.720168914166145,45.70861428754569,62.38772877022967,68.26842101214504,0,10753,10,2,231
43.720168914166145,45.70861428754569,62.38772877022967,68.26842101214504,0,10753,10,2,232
43.720168914166145,45.70861428754569,62.38772877022967,68.26771682443992,0,10753,10,2,233
43.720168914166145,45.70861428754569,62.38772877022967,68.26771682443992,0,10753,10,2,234
43.720168914166145,45.70861428754569,62.38772877022967,68.26810869874838,0,10753,10,2,235
43.720168914166145,45.70861428754569,62.38772877022967,68.26842101214504,0,10753,10,2,236
43.720168914166145,45.70861428754569,62.38772877022967,68.26842101214504,0,10753,10,2,237
43.720168914166145,45.70861428754569,62.38772877022967,68.26842101214504,0,10753,10,2,238
43.720168914166145,45.70861428754569,62.38731017379233,68.2637838803101,0,10753,10,2,239
43.720168914166145,45.70861428754569,62.38731017379233,68.2637838803101,0,10753,10,2,240
43.720168914166145,45.70861428754569,62.38772877022967,68.26842101214504,0,10753,10,2,241
43.720168914166145,45.70861428754569,62.38772877022967,68.26842101214504,0,10753,10,2,242
43.720168914166145,45.70861428754569,62.387547141196094,68.26363863359603,0,10753,10,2,243
43.720168914166145,45.70861428754569,62.387547141196094,68.26363863359603,0,10753,10,2,244
43.720168914166145,45.70861428754569,62.387547141196094,68.26810869874838,0,10753,10,2,245
43.720168914166145,45.70861428754569,62.387547141196094,68.26810869874838,0,10753,10,2,246
43.720168914166145,45.70861428754569,62.387547141196094,68.26810869874838,0,10753,10,2,247
43.720168914166145,45.70861428754569,62.387547141196094,68.26771682443992,0,10753,10,2,248
43.720168914166145,45.70861428754569,62.38679957338133,68.26740422883051,0,11009,10,2,249
43.720168914166145,45.70861428754569,62.38638112857576,68.26395083428345,0,11009,10,2,250
43.720168914166145,45.70861428754569,62.38679957338133,68.26276732515326,0,11009,10,2,251
43.720168914166145,45.70861428754569,62.386981510573676,68.26276732515326,0,11009,10,2,252
43.720168914166145,45.70861428754569,62.387128584428034,68.26395083428345,0,11009,10,2,253
43.720168914166145,45.70861428754569,62.38772877022967,68.26395083428345,0,10753,10,2,254
43.720168914166145,45.70861428754569,62.38772877022967,68.26395083428345,0,10753,10,2,255
43.720168914166145,45.70861428754569,62.387547141196094,68.26395083428345,0,10753,10,2,0
43.720168914166145,45.70861428754569,62.387547141196094,68.26771682443992,0,10753,10,2,1
43.720168914166145,45.70861428754569,62.38772877022967,68.26810869874838,0,10753,10,2,2
43.720168914166145,45.70861428754569,62.38805764077555,68.2682536695537,0,10753,10,2,3
43.720168914166145,45.70861428754569,62.38805764077555,68.2682536695537,0,10753,10,2,4
43.720168914166145,45.70861428754569,62.38772877022967,68.26842101214504,0,11009,10,2,5
43.720168914166145,45.70861428754569,62.38772877022967,68.26842101214504,0,11009,10,2,6
43.720168914166145,45.70861428754569,62.38772877022967,68.26842101214504,0,11009,10,2,7
43.720168914166145,45.70861428754569,62.39201020546909,68.26842101214504,0,11009,10,2,8
43.720168914166145,45.70861428754569,62.391681536832465,68.26842101214504,0,11009,10,2,9
43.720168914166145,45.70861428754569,62.39201020546909,68.26810869874838,0,11009,10,2,10
43.720168914166145,45.70861428754569,62.39201020546909,68.26873320954043,0,11009,10,2,11
43.720168914166145,45.70861428754569,62.39201020546909,68.26810869874838,0,11009,10,2,12
43.720168914166145,45.70861428754569,62.387128584428034,68.26771682443992,0,11009,10,2,13
43.720168914166145,45.70861428754569,62.387128584428034,68.26771682443992,0,11009,10,2,14
43.720168914166145,45.70861428754569,62.387547141196094,68.26810869874838,0,11009,10,2,15
43.720168914166145,45.70861428754569,62.387547141196094,68.26810869874838,0,11009,10,2,16
43.720168914166145,45.70861428754569,62.38772877022967,68.26810869874838,0,11009,10,2,17
43.720168914166145,45.70861428754569,62.38772877022967,68.26842101214504,0,11009,10,2,18
43.720168914166145,45.70861428754569,62.39219195445303,68.26842101214504,0,11009,10,2,19
43.720168914166145,45.70861428754569,62.38772877022967,68.26842101214504,0,11009,10,2,20
43.720168914166145,45.70861428754569,62.388476349178795,68.26395083428345,0,11009,10,2,21
43.720168914166145,45.70861428754569,62.38731017379233,68.26395083428345,0,11009,10,2,22
43.720168914166145,45.70861428754569,62.38731017379233,68.26395083428345,0,10753,10,2,23
43.720168914166145,45.70861428754569,62.38731017379233,68.26771682443992,0,10753,10,2,24
43.720168914166145,45.70861428754569,62.38731017379233,68.2675492903863,0,10753,10,2,25
43.720168914166145,45.70861428754569,62.38772877022967,68.26842101214504,0,11009,10,2,26
43.720168914166145,45.70861428754569,62.38772877022967,68.26842101214504,0,11009,10,2,27
43.720168914166145,45.70861428754569,62.38772877022967,68.26842101214504,0,11009,10,2,28
43.720168914166145,45.70861428754569,62.38772877022967,68.26842101214504,0,11009,10,2,29
43.720168914166145,45.70861428754569,62.38772877022967,68.26842101214504,0,11009,10,2,30
43.720168914166145,45.70861428754569,62.38772877022967,68.26842101214504,0,11009,10,2,31
43.720168914166145,45.70861428754569,62.388476349178795,68.26842101214504,0,11009,10,2,32
43.720168914166145,45.70861428754569,62.39201020546909,68.26842101214504,0,11009,10,2,33
43.720168914166145,45.70861428754569,62.39201020546909,68.26842101214504,0,11009,10,2,34
43.720168914166145,45.70861428754569,62.38772877022967,68.26842101214504,0,11009,10,2,35
43.720168914166145,45.70861428754569,62.387547141196094,68.2675492903863,0,10753,10,2,36
43.720168914166145,45.70861428754569,62.387547141196094,68.26395083428345,0,10753,10,2,37
43.720168914166145,45.70861428754569,62.38772877022967,68.26395083428345,0,11009,10,2,38
43.720168914166145,45.70861428754569,62.38772877022967,68.26842101214504,0,11009,10,2,39
43.720168914166145,45.70861428754569,62.38772877022967,68.26842101214504,0,11009,10,2,40
43.720168914166145,45.70861428754569,62.39219195445303,68.26842101214504,0,11009,10,2,41
43.720168914166145,45.70861428754569,62.39219195445303,68.26771682443992,0,11009,10,2,42
43.720168914166145,45.70861428754569,62.38772877022967,68.26395083428345,52,11009,10,2,43
43.720168914166145,45.70861428754569,62.38772877022967,68.26395083428345,507,11009,10,2,44
43.720168914166145,45.70861428754569,62.38772877022967,68.26842101214504,1225,11009,10,2,45
43.720168914166145,45.70861428754569,62.38772877022967,68.26842101214504,2105,11009,10,2,46
43.720168914166145,45.70861428754569,62.38772877022967,68.26842101214504,3075,11009,10,2,47
43.720168914166145,45.70861428754569,62.38772877022967,68.26842101214504,3909,11009,10,2,48
43.720168914166145,45.70861428754569,62.38772877022967,68.26842101214504,3999,11009,10,2,49
43.720168914166145,45.70861428754569,62.38772877022967,68.26842101214504,3999,11009,10,2,50
43.720168914166145,45.70861428754569,62.38772877022967,68.26842101214504,3999,11009,10,2,51
43.720168914166145,45.70861428754569,62.38772877022967,68.26842101214504,3999,11009,10,2,52
43.720168914166145,45.70861428754569,62.38772877022967,68.26842101214504,3999,11009,10,2,53
43.720168914166145,45.70861428754569,62.38772877022967,68.26842101214504,3999,11009,10,2,54
43.720168914166145,45.70861428754569,62.38772877022967,68.26842101214504,3999,11009,10,2,55
43.720168914166145,45.70861428754569,62.38772877022967,68.26842101214504,3999,10753,10,2,56
43.720168914166145,45.70861428754569,62.38772877022967,68.26740422883051,3999,10753,10,2,57
43.720168914166145,45.70861428754569,62.38772877022967,68.26740422883051,3999,10753,10,2,58
43.720168914166145,45.70861428754569,62.388476349178795,68.26842101214504,3999,10753,10,2,59
43.720168914166145,45.70861428754569,62.388476349178795,68.26842101214504,3999,10753,10,2,60
43.720168914166145,45.70861428754569,62.38823886472964,68.26786141696037,3999,11009,10,2,61
43.720168914166145,45.70861428754569,62.38823886472964,68.26786141696037,3999,11009,10,2,62
43.720168914166145,45.70861428754569,62.38772877022967,68.26740422883051,3999,11009,10,2,63
43.720168914166145,45.70861428754569,62.39219195445303,68.26842101214504,3999,11009,10,2,64
43.720168914166145,45.70861428754569,62.38829502828775,68.26842101214504,3999,11009,10,2,65
43.720168914166145,45.70861428754569,62.38829502828775,68.26842101214504,3999,11009,10,2,66
43.720168914166145,45.70861428754569,62.38829502828775,68.26810869874838,3999,11009,10,2,67
43.720168914166145,45.70861428754569,62.391262691130464,68.26810869874838,3999,11009,10,2,68
43.720168914166145,45.70861428754569,62.39219195445303,68.26842101214504,3999,11009,10,2,69
43.720168914166145,45.70861428754569,62.39219195445303,68.26842101214504,3999,11009,10,2,70
43.720168914166145,45.70861428754569,62.39219195445303,68.26842101214504,3999,11009,10,2,71
43.720168914166145,45.70861428754569,62.39219195445303,68.26842101214504,3999,11009,10,2,72
43.720168914166145,45.70861428754569,62.39219195445303,68.26842101214504,3999,11009,10,2,73
43.720168914166145,45.70861428754569,62.38772877022967,68.26842101214504,3999,11009,10,2,74
43.720168914166145,45.70861428754569,62.38772877022967,68.26395083428345,3999,11009,10,2,75
43.720168914166145,45.70861428754569,62.39219195445303,68.26842101214504,3999,10753,10,2,76
43.720168914166145,45.70861428754569,62.39219195445303,68.26842101214504,3999,10753,10,2,77
43.720168914166145,45.70861428754569,62.39219195445303,68.26842101214504,3999,10753,10,2,78
43.720168914166145,45.70861428754569,62.39219195445303,68.26842101214504,3999,11009,10,2,79
43.720168914166145,45.70861428754569,62.38284733878391,68.26307945502076,3999,11009,10,2,80
43.720168914166145,45.70861428754569,62.38284733878391,68.26307945502076,3999,11009,10,2,81
43.720168914166145,45.70861428754569,62.38772877022967,68.26395083428345,3999,11009,10,2,82
43.720168914166145,45.70861428754569,62.38772877022967,68.26842101214504,3999,11009,10,2,83
43.720168914166145,45.70861428754569,62.38772877022967,68.26842101214504,3999,11009,10,2,84
43.720168914166145,45.70861428754569,62.38772877022967,68.26842101214504,3999,11009,10,2,85
43.720168914166145,45.70861428754569,62.39219195445303,68.26842101214504,3999,11009,10,2,86
43.720168914166145,45.70861428754569,62.39219195445303,68.26842101214504,3999,11009,10,2,87
43.720168914166145,45.70861428754569,62.39219195445303,68.26842101214504,3999,11009,10,2,88
43.720168914166145,45.70861428754569,62.39219195445303,68.26842101214504,3999,11009,10,2,89
43.720168914166145,45.70861428754569,62.38772877022967,68.26771682443992,3999,11009,10,2,90
43.720168914166145,45.70861428754569,62.38772877022967,68.26842101214504,3999,11009,10,2,91
43.720168914166145,45.70861428754569,62.38772877022967,68.26771682443992,3999,11009,10,2,92
43.720168914166145,45.70861428754569,62.38772877022967,68.26842101214504,3999,11009,10,2,93
43.720168914166145,45.70861428754569,62.38772877022967,68.26810869874838,3999,11009,10,2,94
43.720168914166145,45.70861428754569,62.38772877022967,68.26810869874838,3999,11009,10,2,95
43.720168914166145,45.70861428754569,62.39201020546909,68.26810869874838,3999,11009,10,2,96
43.720168914166145,45.70861428754569,62.38772877022967,68.26395083428345,3999,11009,10,2,97
43.720168914166145,45.70861428754569,62.39219195445303,68.26842101214504,3999,11009,10,2,98
43.720168914166145,45.70861428754569,62.38772877022967,68.26395083428345,3999,11009,10,2,99
43.720168914166145,45.70861428754569,62.39186363370568,68.26842101214504,3999,11009,10,2,100
43.720168914166145,45.70861428754569,62.39186363370568,68.26395083428345,3999,11009,10,2,101
43.720168914166145,45.70861428754569,62.39219195445303,68.26842101214504,3999,11009,10,2,102
43.720168914166145,45.70861428754569,62.39219195445303,68.26842101214504,3999,11009,10,2,103
43.720168914166145,45.70861428754569,62.39219195445303,68.26842101214504,3999,11009,10,2,104
43.720168914166145,45.70861428754569,62.38772877022967,68.26842101214504,3999,11009,10,2,105
43.720168914166145,45.70861428754569,62.39219195445303,68.26842101214504,3999,11009,10,2,106
43.720168914166145,45.70861428754569,62.38772877022967,68.26395083428345,3999,11009,10,2,107
43.720168914166145,45.70861428754569,62.38772877022967,68.26842101214504,3999,11009,10,2,108
43.720168914166145,45.70861428754569,62.38772877022967,68.26842101214504,3999,11009,10,2,109
43.720168914166145,45.70861428754569,62.38772877022967,68.26842101214504,3999,11009,10,2,110
43.720168914166145,45.70861428754569,62.387910341966055,68.26842101214504,3999,11009,10,2,111
43.720168914166145,45.70861428754569,62.387910341966055,68.26842101214504,3999,11009,10,4,223
43.72089860305696,45.70865944255527,62.387910341966055,68.26842101214504,3999,11009,10,1,117
43.72089860305696,45.70865944255527,62.387910341966055,68.26842101214504,3999,11009,10,1,118
43.72089860305696,45.70780400687424,62.387910341966055,68.26842101214504,3999,11009,10,1,119
43.720168914166145,45.705019003235876,62.387910341966055,68.26842101214504,3999,11009,10,1,120
43.720168914166145,45.705019003235876,62.387910341966055,68.26842101214504,3999,11009,10,1,121
43.720168914166145,45.70436544548408,62.387910341966055,68.26842101214504,3999,11009,10,1,122
43.719543738727495,45.70506467873392,62.387910341966055,68.26842101214504,3999,11009,10,1,123
43.719543738727495,45.70784933743688,62.387910341966055,68.26842101214504,3999,11009,10,1,124
43.719543738727495,45.70784933743688,62.387910341966055,68.26842101214504,3999,11009,10,1,125
43.720168914166145,45.70865944255527,62.387910341966055,68.26842101214504,3999,11009,10,1,126
43.720168914166145,45.705874537788915,62.387910341966055,68.26842101214504,3999,11009,10,1,127
43.719543738727495,45.705874537788915,62.387910341966055,68.26842101214504,3999,11009,10,1,128
43.719439646028796,45.70436544548408,62.387910341966055,68.26842101214504,3999,11009,10,1,129
43.719543738727495,45.70432016341978,62.387910341966055,68.26842101214504,3999,11009,10,1,130
43.719543738727495,45.70432016341978,62.387910341966055,68.26842101214504,3999,11009,10,1,131
43.720168914166145,45.70436544548408,62.387910341966055,68.26842101214504,3999,11009,10,1,132
43.719543738727495,45.70436544548408,62.387910341966055,68.26842101214504,3999,11009,10,1,133
43.720168914166145,45.70436544548408,62.387910341966055,68.26842101214504,3999,11009,10,1,134
43.719543738727495,45.70436544548408,62.387910341966055,68.26842101214504,3999,11009,10,1,135
43.719543738727495,45.70436544548408,62.387910341966055,68.26842101214504,3999,11009,10,1,136
43.719543738727495,45.70436544548408,62.387910341966055,68.26842101214504,3999,11009,10,1,137
43.719543738727495,45.70436544548408,62.387910341966055,68.26842101214504,3999,11009,10,1,138
43.720168914166145,45.70436544548408,62.387910341966055,68.26842101214504,3999,11009,10,1,139
43.720168914166145,45.70780400687424,62.387910341966055,68.26842101214504,3999,11009,10,1,140
43.72027341718414,45.70780400687424,62.387910341966055,68.26842101214504,3999,11009,10,1,141
43.720168914166145,45.70506467873392,62.387910341966055,68.26842101214504,3999,11009,10,1,142
43.720168914166145,45.705019003235876,62.387910341966055,68.26842101214504,3999,11009,10,1,143
43.719543738727495,45.70436544548408,62.387910341966055,68.26842101214504,3999,11009,10,1,144
43.719543738727495,45.70436544548408,62.387910341966055,68.26842101214504,3999,11009,10,1,145
43.720168914166145,45.70436544548408,62.387910341966055,68.26842101214504,3999,11009,10,1,146
43.720168914166145,45.70436544548408,62.387910341966055,68.26842101214504,3999,11009,10,1,147
43.719543738727495,45.70436544548408,62.387910341966055,68.26842101214504,3999,11009,10,1,148
43.719543738727495,45.70436544548408,62.387910341966055,68.26842101214504,3999,11009,10,1,149
43.720168914166145,45.705019003235876,62.387910341966055,68.26842101214504,3999,11009,10,1,150
43.72027341718414,45.705019003235876,62.387910341966055,68.26842101214504,3999,11009,10,1,151
43.720168914166145,45.70436544548408,62.387910341966055,68.26842101214504,3999,11009,10,1,152
43.720168914166145,45.70436544548408,62.387910341966055,68.26842101214504,3999,11009,10,1,153
43.720168914166145,45.705019003235876,62.387910341966055,68.26842101214504,3999,11009,10,1,154
43.720168914166145,45.705019003235876,62.387910341966055,68.26842101214504,3999,11009,10,1,155
43.720168914166145,45.705019003235876,62.387910341966055,68.26842101214504,3999,11009,10,1,156
43.720168914166145,45.705019003235876,62.387910341966055,68.26842101214504,3999,11009,10,1,157
43.720168914166145,45.705019003235876,62.387910341966055,68.26842101214504,3999,11009,10,1,158
43.720168914166145,45.705221066128374,62.387910341966055,68.26842101214504,3999,11009,10,1,159
43.719543738727495,45.705221066128374,62.387910341966055,68.26842101214504,3999,11009,10,1,160
43.720168914166145,45.70931306170986,62.387910341966055,68.26842101214504,3999,11009,10,1,161
43.720168914166145,45.70506467873392,62.387910341966055,68.26842101214504,3999,11009,10,1,162
43.720168914166145,45.70865944255527,62.387910341966055,68.26842101214504,3999,11009,10,1,163
43.720168914166145,45.70506467873392,62.387910341966055,68.26842101214504,3999,11009,10,1,164
43.719543738727495,45.705019003235876,62.387910341966055,68.26842101214504,3999,11009,10,1,165
43.720168914166145,45.705019003235876,62.387910341966055,68.26842101214504,3999,11009,10,1,166
43.720168914166145,45.705019003235876,62.387910341966055,68.26842101214504,3999,11009,10,1,167
43.72027341718414,45.70506467873392,62.387910341966055,68.26842101214504,3999,11009,10,1,168
43.720168914166145,45.705019003235876,62.387910341966055,68.26842101214504,3999,11009,10,1,169
43.720168914166145,45.705019003235876,62.387910341966055,68.26842101214504,3999,11009,10,1,170
43.719543738727495,45.70436544548408,62.387910341966055,68.26842101214504,3999,11009,10,1,171
43.720168914166145,45.705019003235876,62.387910341966055,68.26842101214504,3999,11009,10,1,172
43.720168914166145,45.705019003235876,62.387910341966055,68.26842101214504,3999,11009,10,1,173
43.722832972340754,45.70780400687424,62.387910341966055,68.26842101214504,3999,11009,10,1,174
43.722832972340754,45.70780400687424,62.387910341966055,68.26842101214504,3999,11009,10,1,175
43.720168914166145,45.705019003235876,62.387910341966055,68.26842101214504,3999,11009,10,1,176
43.719543738727495,45.70436544548408,62.387910341966055,68.26842101214504,3999,11009,10,1,177
43.720168914166145,45.705019003235876,62.387910341966055,68.26842101214504,3999,11009,10,1,178
43.720168914166145,45.705019003235876,62.387910341966055,68.26842101214504,3999,11009,10,1,179
43.720168914166145,45.705019003235876,62.387910341966055,68.26842101214504,3999,11009,10,1,180
43.720168914166145,45.705019003235876,62.387910341966055,68.26842101214504,3999,11009,10,1,181
43.720168914166145,45.70436544548408,62.387910341966055,68.26842101214504,3999,11009,10,1,182
43.720168914166145,45.705019003235876,62.387910341966055,68.26842101214504,3999,11009,10,1,183
43.719543738727495,45.70436544548408,62.387910341966055,68.26842101214504,3999,11009,10,1,184
43.719543738727495,45.70436544548408,62.387910341966055,68.26842101214504,3999,11009,10,1,185
43.719543738727495,45.70436544548408,62.387910341966055,68.26842101214504,3999,11009,10,1,186
43.720168914166145,45.70780400687424,62.387910341966055,68.26842101214504,3999,11009,10,1,187
43.720168914166145,45.70780400687424,62.387910341966055,68.26842101214504,3999,11009,10,1,188
43.719543738727495,45.70436544548408,62.387910341966055,68.26842101214504,3999,11009,10,1,189
43.719543738727495,45.70436544548408,62.387910341966055,68.26842101214504,3999,11009,10,1,190
43.720168914166145,45.705019003235876,62.387910341966055,68.26842101214504,3999,11009,10,1,191
43.720168914166145,45.705019003235876,62.387910341966055,68.26842101214504,3999,11009,10,1,192
43.719543738727495,45.70865944255527,62.387910341966055,68.26842101214504,3999,11009,10,1,193
43.719543738727495,45.70865944255527,62.387910341966055,68.26842101214504,3999,11009,10,1,194
43.720168914166145,45.70865944255527,62.387910341966055,68.26842101214504,3999,11009,10,1,195
43.720168914166145,45.70865944255527,62.387910341966055,68.26842101214504,3999,11009,10,1,196
43.720168914166145,45.70931306170986,62.387910341966055,68.26842101214504,3999,11009,10,1,197
43.720168914166145,45.705019003235876,62.387910341966055,68.26842101214504,3999,11009,10,1,198
43.720168914166145,45.708457712150235,62.387910341966055,68.26842101214504,3999,11009,10,1,199
43.719543738727495,45.70436544548408,62.387910341966055,68.26842101214504,3999,11009,10,1,200
43.72027341718414,45.70436544548408,62.387910341966055,68.26842101214504,3999,11009,10,1,201
43.719543738727495,45.70436544548408,62.387910341966055,68.26842101214504,3999,11265,10,1,202
43.72027341718414,45.70436544548408,62.387910341966055,68.26842101214504,3999,11265,10,1,203
43.719543738727495,45.70436544548408,62.387910341966055,68.26842101214504,3999,11265,10,1,204
43.719543738727495,45.70436544548408,62.387910341966055,68.26842101214504,3999,11009,10,1,205
43.719543738727495,45.70436544548408,62.387910341966055,68.26842101214504,3999,11009,10,1,206
43.719543738727495,45.70436544548408,62.387910341966055,68.26842101214504,3999,11009,10,1,207
43.720168914166145,45.708457712150235,62.387910341966055,68.26842101214504,3999,11009,10,1,208
43.722832972340754,45.708457712150235,62.387910341966055,68.26842101214504,3999,11009,10,1,209
43.723458288897,45.708457712150235,62.387910341966055,68.26842101214504,3999,11009,10,1,210
43.722832972340754,45.70780400687424,62.387910341966055,68.26842101214504,3999,11009,10,1,211
43.722832972340754,45.70780400687424,62.387910341966055,68.26842101214504,3999,11009,10,1,212
43.720168914166145,45.70780400687424,62.387910341966055,68.26842101214504,3999,11009,10,1,213
43.720168914166145,45.705019003235876,62.387910341966055,68.26842101214504,3999,11009,10,1,214
43.720168914166145,45.70436544548408,62.387910341966055,68.26842101214504,3999,11009,10,1,215
43.72027341718414,45.70436544548408,62.387910341966055,68.26842101214504,3999,11009,10,1,216
43.722832972340754,45.70780400687424,62.387910341966055,68.26842101214504,3999,11009,10,1,217
43.722832972340754,45.70780400687424,62.387910341966055,68.26842101214504,3999,11009,10,1,218
43.722832972340754,45.70780400687424,62.387910341966055,68.26842101214504,3999,11009,10,1,219
43.720168914166145,45.70436544548408,62.387910341966055,68.26842101214504,3999,11009,10,1,220
43.720168914166145,45.70506467873392,62.387910341966055,68.26842101214504,3999,11009,10,1,221
43.720168914166145,45.705019003235876,62.387910341966055,68.26842101214504,3999,11009,10,1,222
43.719543738727495,45.705019003235876,62.387910341966055,68.26842101214504,3999,11009,10,1,223
43.719543738727495,45.70436544548408,62.387910341966055,68.26842101214504,3999,11009,10,1,224
43.719543738727495,45.70436544548408,62.387910341966055,68.26842101214504,3999,11009,10,1,225
43.719543738727495,45.70436544548408,62.387910341966055,68.26842101214504,3999,11009,10,1,226
43.719543738727495,45.70436544548408,62.387910341966055,68.26842101214504,3999,11265,10,1,227
43.71964800176521,45.70436544548408,62.387910341966055,68.26842101214504,3999,11265,10,1,228
43.720168914166145,45.70436544548408,62.387910341966055,68.26842101214504,3999,11009,10,1,229
43.72027341718414,45.70436544548408,62.387910341966055,68.26842101214504,3999,11009,10,1,230
43.72027341718414,45.70436544548408,62.387910341966055,68.26842101214504,3999,11009,10,1,231
