BIOZ1,BIOZ2,BIOZ3,BIOZ4,ECG,PPG,EXC_FREQ_KHZ,MUX_CONFIG,PACKET_NUMBER
43.725288769730724,45.71567099280779,62.395600152363386,68.2905145816554,0,448,10,2,198
43.725288769730724,45.71567099280779,62.395600152363386,68.2905145816554,0,448,10,2,199
43.725288769730724,45.71567099280779,62.395600152363386,68.2905145816554,0,448,10,2,200
43.725288769730724,45.71567099280779,62.395600152363386,68.2905145816554,0,448,10,2,201
43.725288769730724,45.71567099280779,62.393764440117124,68.28871893521452,0,448,10,2,202
43.725288769730724,45.71567099280779,62.393764440117124,68.28871893521452,0,448,10,2,203
43.725288769730724,45.71560608553127,62.393764440117124,68.28871893521452,89,448,10,1,205
55.87930561028812,7.258288248857068,62.393764440117124,68.28871893521452,304,448,10,1,206
55.87940253025606,0.049905375092098296,62.393764440117124,68.28871893521452,816,448,10,1,207
55.87940253025606,0.049905375092098296,62.393764440117124,68.28871893521452,1360,384,10,1,208
55.88329491130038,0.05392839969241138,62.393764440117124,68.28871893521452,1950,384,10,1,209
55.88329491130038,0.05392839969241138,62.393764440117124,68.28871893521452,2550,384,10,1,210
55.88329491130038,0.05392839969241138,62.393764440117124,68.28871893521452,3132,384,10,1,211
55.88329491130038,0.05392839969241138,62.393764440117124,68.28871893521452,3675,384,10,1,212
55.88329491130038,0.05392839969241138,62.393764440117124,68.28871893521452,3994,384,10,1,213
55.88118547574352,0.05392839969241138,62.393764440117124,68.28871893521452,3999,384,10,1,214
55.88329491130038,0.05392839969241138,62.393764440117124,68.28871893521452,3999,384,10,1,215
55.88319820156575,0.05392839969241138,62.393764440117124,68.28871893521452,3999,384,10,1,216
55.88319820156575,0.05392839969241138,62.393764440117124,68.28871893521452,3999,384,10,1,217
55.88319820156575,0.053932062839657444,62.393764440117124,68.28871893521452,3999,384,10,1,218
55.88319820156575,0.05392839969241138,62.393764440117124,68.28871893521452,3999,384,10,1,219
55.88319820156575,0.05393012038720274,62.393764440117124,68.28871893521452,3999,384,10,1,220
55.88329491130038,0.05392839969241138,62.393764440117124,68.28871893521452,3999,384,10,1,221
55.87944593446414,0.05392839969241138,62.393764440117124,68.28871893521452,3999,384,10,1,222
55.87940253025606,0.05392839969241138,62.393764440117124,68.28871893521452,3999,384,10,1,223
55.87940253025606,0.05392839969241138,62.393764440117124,68.28871893521452,3999,384,10,1,224
55.883241850968,0.05393012038720274,62.393764440117124,68.28871893521452,3999,384,10,1,225
55.883241850968,0.05393012038720274,62.393764440117124,68.28871893521452,3999,384,10,1,226
55.88155554668518,0.05393012038720274,62.393764440117124,68.28871893521452,3999,384,10,1,227
55.88155554668518,0.05392839969241138,62.393764440117124,68.28871893521452,3999,256,10,1,228
55.88155554668518,0.05392839969241138,62.393764440117124,68.28871893521452,3999,256,10,1,229
55.87940253025606,0.05392839969241138,62.393764440117124,68.28871893521452,3999,256,10,1,230
55.87940253025606,0.05392839969241138,62.393764440117124,68.28871893521452,3999,256,10,1,231
55.87940253025606,0.05392839969241138,62.393764440117124,68.28871893521452,3999,192,10,1,232
55.87944593446414,0.05392839969241138,62.393764440117124,68.28871893521452,3999,192,10,1,233
55.87940253025606,0.05392839969241138,62.393764440117124,68.28871893521452,3999,192,10,1,234
55.88329491130038,0.05392839969241138,62.393764440117124,68.28871893521452,3999,192,10,1,235
55.87940253025606,0.05392839969241138,62.393764440117124,68.28871893521452,3999,384,10,1,236
55.87940253025606,0.05392839969241138,62.393764440117124,68.28871893521452,3999,384,10,1,237
55.87940253025606,0.05392839969241138,62.393764440117124,68.28871893521452,3999,384,10,1,238
55.883241850968,0.05392839969241138,62.393764440117124,68.28871893521452,3999,384,10,1,239
55.883241850968,0.05392839969241138,62.393764440117124,68.28871893521452,3999,384,10,1,240
55.88319820156575,0.053932062839657444,62.393764440117124,68.28871893521452,3999,384,10,1,241
55.88319820156575,0.053932062839657444,62.393764440117124,68.28871893521452,3999,384,10,1,242
55.88319820156575,0.053932062839657444,62.393764440117124,68.28871893521452,3999,384,10,1,243
55.88319820156575,0.05392839969241138,62.393764440117124,68.28871893521452,3999,384,10,1,244
55.88118547574352,0.05392839969241138,62.393764440117124,68.28871893521452,3999,384,10,1,245
55.88118547574352,0.05392839969241138,62.393764440117124,68.28871893521452,3999,384,10,1,246
55.88118547574352,0.05393012038720274,62.393764440117124,68.28871893521452,3999,384,10,1,247
55.88118547574352,0.05393012038720274,62.393764440117124,68.28871893521452,3999,320,10,1,248
55.88118547574352,0.05393012038720274,62.393764440117124,68.28871893521452,3999,320,10,1,249
55.88118547574352,0.05393012038720274,62.393764440117124,68.28871893521452,3999,320,10,1,250
55.87954283874326,0.05392839969241138,62.393764440117124,68.28871893521452,3999,320,10,1,251
55.87940253025606,0.05392839969241138,62.393764440117124,68.28871893521452,3999,320,10,1,252
55.87940253025606,0.05392839969241138,62.393764440117124,68.28871893521452,3999,256,10,1,253
55.87940253025606,0.05392839969241138,62.393764440117124,68.28871893521452,3999,256,10,1,254
55.87944593446414,0.05392839969241138,62.393764440117124,68.28871893521452,3999,256,10,1,255
55.883241850968,0.05392839969241138,62.393764440117124,68.28871893521452,3999,256,10,1,0
55.88329491130038,0.0539337838851242,62.393764440117124,68.28871893521452,3999,256,10,1,1
55.883338560869,0.05393012038720274,62.393764440117124,68.28871893521452,3999,384,10,1,2
55.883338560869,0.05393012038720274,62.393764440117124,68.28871893521452,3999,384,10,1,3
55.883338560869,0.05393012038720274,62.393764440117124,68.28871893521452,3999,384,10,1,4
55.87940253025606,0.05392839969241138,62.393764440117124,68.28871893521452,3999,384,10,1,5
55.87944593446414,0.05393012038720274,62.393764440117124,68.28871893521452,3999,384,10,1,6
55.87944593446414,0.05393012038720274,62.393764440117124,68.28871893521452,3999,320,10,1,7
55.883338560869,0.05393012038720274,62.393764440117124,68.28871893521452,3999,320,10,1,8
55.883338560869,0.05393012038720274,62.393764440117124,68.28871893521452,3999,320,10,1,9
55.883241850968,0.05393012038720274,62.393764440117124,68.28871893521452,3999,320,10,1,10
55.883241850968,0.05393012038720274,62.393764440117124,68.28871893521452,3999,320,10,1,11
55.87944593446414,0.05393012038720274,62.393764440117124,68.28871893521452,3999,384,10,1,12
55.88329491130038,0.05393012038720274,62.393764440117124,68.28871893521452,3999,384,10,1,13
55.88329491130038,0.05393012038720274,62.393764440117124,68.28871893521452,3999,384,10,1,14
55.88329491130038,0.05393012038720274,62.393764440117124,68.28871893521452,3999,384,10,1,15
55.88329491130038,0.05393012038720274,62.393764440117124,68.28871893521452,3999,384,10,1,16
55.88329491130038,0.05392839969241138,62.393764440117124,68.28871893521452,3999,384,10,1,17
55.87944593446414,0.05392839969241138,62.393764440117124,68.28871893521452,3999,384,10,1,18
55.87944593446414,0.05392839969241138,62.393764440117124,68.28871893521452,3999,384,10,1,19
55.87944593446414,0.05392839969241138,62.393764440117124,68.28871893521452,3999,384,10,1,20
55.87944593446414,0.05392839969241138,62.393764440117124,68.28871893521452,3999,128,10,1,21
55.88329491130038,0.05392839969241138,62.393764440117124,68.28871893521452,3999,128,10,1,22
55.883338560869,0.05393012038720274,62.393764440117124,68.28871893521452,3999,64,10,1,23
55.883338560869,0.05393012038720274,62.393764440117124,68.28871893521452,3999,64,10,1,24
55.87944593446414,0.05393012038720274,62.393764440117124,68.28871893521452,3999,64,10,1,25
55.87944593446414,0.05392839969241138,62.393764440117124,68.28871893521452,3999,64,10,1,26
55.883241850968,0.05392839969241138,62.393764440117124,68.28871893521452,3999,320,10,1,27
55.883241850968,0.05274078804383723,62.393764440117124,68.28871893521452,3999,320,10,1,28
55.87944593446414,0.05274078804383723,62.393764440117124,68.28871893521452,3999,320,10,1,29
55.87944593446414,0.05392839969241138,62.393764440117124,68.28871893521452,3999,320,10,1,30
55.88329491130038,0.05393012038720274,62.393764440117124,68.28871893521452,3999,320,10,1,31
55.88329491130038,0.05393012038720274,62.393764440117124,68.28871893521452,3999,448,10,1,32
55.87944593446414,0.05393012038720274,62.393764440117124,68.28871893521452,3999,448,10,1,33
55.87944593446414,0.05393012038720274,62.393764440117124,68.28871893521452,3999,448,10,1,34
55.87944593446414,0.05393012038720274,62.393764440117124,68.28871893521452,3999,448,10,1,35
55.88319820156575,0.05393012038720274,62.393764440117124,68.28871893521452,3999,448,10,1,36
55.88319820156575,0.05392839969241138,62.393764440117124,68.28871893521452,3999,448,10,1,37
55.88329491130038,0.05392839969241138,62.393764440117124,68.28871893521452,3999,448,10,1,38
55.87940253025606,0.05392839969241138,62.393764440117124,68.28871893521452,3999,448,10,1,39
55.88329491130038,0.05392839969241138,62.393764440117124,68.28871893521452,3999,448,10,1,40
55.88329491130038,0.05392839969241138,62.393764440117124,68.28871893521452,3999,448,10,1,41
55.88329491130038,0.05392839969241138,62.393764440117124,68.28871893521452,3999,320,10,1,42
55.88329491130038,0.05392839969241138,62.393764440117124,68.28871893521452,3999,320,10,1,43
55.88118547574352,0.05393012038720274,62.393764440117124,68.28871893521452,3999,320,10,1,44
55.88118547574352,0.05392839969241138,62.393764440117124,68.28871893521452,3999,320,10,1,45
55.88155554668518,0.05392839969241138,62.393764440117124,68.28871893521452,3999,320,10,1,46
55.88155554668518,0.05392839969241138,62.393764440117124,68.28871893521452,3999,384,10,1,47
55.88155554668518,0.05392839969241138,62.393764440117124,68.28819811067349,3999,384,10,2,49
55.88155554668518,0.05392839969241138,63.07795152032365,0.0973212145105026,3999,384,10,2,50
55.88155554668518,0.05392839969241138,63.082875892979594,0.09730107517467698,3999,384,10,2,51
55.88155554668518,0.05392839969241138,63.08083217043849,0.09730107517467698,3999,384,10,2,52
55.88155554668518,0.05392839969241138,63.08083217043849,0.09728765307001955,3999,384,10,2,53
55.88155554668518,0.05392839969241138,63.08083217043849,0.09728765307001955,3999,384,10,2,54
55.88155554668518,0.05392839969241138,63.08083217043849,0.09728450120088335,3999,384,10,2,55
55.88155554668518,0.05392839969241138,63.08111476784174,0.09728765307001955,3999,384,10,2,56
55.88155554668518,0.05392839969241138,63.08111476784174,0.09728765307001955,3999,384,10,2,57
55.88155554668518,0.05392839969241138,63.08111476784174,0.09728765307001955,3999,448,10,2,58
55.88155554668518,0.05392839969241138,63.08111476784174,0.09728765307001955,3999,448,10,2,59
55.88155554668518,0.05392839969241138,63.08111476784174,0.09728450120088335,3999,448,10,2,60
55.88155554668518,0.05392839969241138,63.08478685550735,0.0972912111891287,3999,448,10,2,61
55.88155554668518,0.05392839969241138,63.08478685550735,0.09728450120088335,3999,448,10,2,62
55.88155554668518,0.05392839969241138,63.085183034524206,0.09728450120088335,3999,384,10,2,63
55.88155554668518,0.05392839969241138,63.08083217043849,0.09728450120088335,3999,384,10,2,64
55.88155554668518,0.05392839969241138,63.08111476784174,0.09728450120088335,3999,384,10,2,65
55.88155554668518,0.05392839969241138,63.08111476784174,0.09728765307001955,3999,384,10,2,66
55.88155554668518,0.05392839969241138,63.08111476784174,0.09729436371051112,3999,384,10,2,67
55.88155554668518,0.05392839969241138,63.08111476784174,0.09729436371051112,3999,256,10,2,68
55.88155554668518,0.05392839969241138,63.08083217043849,0.10134171433304216,3999,256,10,2,69
55.88155554668518,0.05392839969241138,63.08083217043849,0.09728450120088335,3999,256,10,2,70
55.88155554668518,0.05392839969241138,63.08083217043849,0.09728450120088335,3999,256,10,2,71
55.88155554668518,0.05392839969241138,63.08478685550735,0.09728450120088335,3999,64,10,2,72
55.88155554668518,0.05392839969241138,63.08478685550735,0.09728450120088335,3999,64,10,2,73
55.88155554668518,0.05392839969241138,63.08083217043849,0.09728450120088335,3999,64,10,2,74
55.88155554668518,0.05392839969241138,63.08083217043849,0.09729436371051112,3999,64,10,2,75
55.88155554668518,0.05392839969241138,63.079071102356565,0.09728450120088335,3999,320,10,2,76
55.88155554668518,0.05392839969241138,63.08111476784174,0.09728765307001955,3999,384,10,2,77
55.88155554668518,0.05392839969241138,63.08083217043849,0.09728450120088335,3999,384,10,2,78
55.88155554668518,0.05392839969241138,63.08083217043849,0.09325174292100648,3999,384,10,2,79
55.88155554668518,0.05392839969241138,63.08083217043849,0.09325174292100648,3999,384,10,2,80
55.88155554668518,0.05392839969241138,63.08111476784174,0.09325174292100648,3999,384,10,2,81
55.88155554668518,0.05392839969241138,63.08111476784174,0.09728765307001955,3999,256,10,2,82
55.88155554668518,0.05392839969241138,63.08111476784174,0.09728765307001955,3999,256,10,2,83
55.88155554668518,0.05392839969241138,63.08111476784174,0.0972912111891287,3999,256,10,2,84
55.88155554668518,0.05392839969241138,63.08083217043849,0.0972912111891287,3999,256,10,2,85
55.88155554668518,0.05392839969241138,63.08083217043849,0.09729436371051112,3999,256,10,2,86
55.88155554668518,0.05392839969241138,63.08083217043849,0.09729436371051112,3999,320,10,2,87
55.88155554668518,0.05392839969241138,63.08083217043849,0.10134171433304216,3999,320,10,2,88
55.88155554668518,0.05392839969241138,63.08083217043849,0.10134870415879595,3999,320,10,2,89
55.88155554668518,0.05392839969241138,63.08083217043849,0.10134171433304216,3999,320,10,2,90
55.88155554668518,0.05392839969241138,63.08083217043849,0.10134171433304216,3999,320,10,2,91
55.88155554668518,0.05392839969241138,63.08083217043849,0.09729436371051112,3999,448,10,2,92
55.88155554668518,0.05392839969241138,63.08083217043849,0.09729436371051112,3999,448,10,2,93
55.88155554668518,0.05392839969241138,63.08083217043849,0.09729436371051112,3999,448,10,2,94
55.88155554668518,0.05392839969241138,63.08083217043849,0.0972912111891287,3999,448,10,2,95
55.88155554668518,0.05392839969241138,63.08083217043849,0.0972912111891287,3999,448,10,2,96
55.88155554668518,0.05392839969241138,63.08083217043849,0.09728450120088335,3999,448,10,2,97
55.88155554668518,0.05392839969241138,63.08083217043849,0.09995524722199486,3999,320,10,2,98
55.88155554668518,0.05392839969241138,63.08151078614116,0.09729436371051112,3999,320,10,2,99
55.88155554668518,0.05392839969241138,63.08151078614116,0.09729436371051112,3999,320,10,2,100
55.88155554668518,0.05392839969241138,63.079071102356565,0.09728450120088335,3999,320,10,2,101
55.88155554668518,0.05392839969241138,63.079071102356565,0.09728450120088335,3999,320,10,2,102
55.88155554668518,0.05392839969241138,63.079071102356565,0.09728450120088335,3999,256,10,2,103
55.88155554668518,0.05392839969241138,63.08111476784174,0.09728765307001955,3999,256,10,2,104
55.88155554668518,0.05392839969241138,63.08111476784174,0.09728450120088335,3999,256,10,2,105
55.88155554668518,0.05392839969241138,63.079071102356565,0.09728765307001955,3999,256,10,2,106
55.88155554668518,0.05392839969241138,63.079071102356565,0.09728765307001955,3999,256,10,2,107
55.88155554668518,0.05392839969241138,63.08083217043849,0.09728765307001955,3999,448,10,2,108
55.88155554668518,0.05392839969241138,63.08083217043849,0.09728765307001955,3999,448,10,2,109
55.88155554668518,0.05392839969241138,63.08083217043849,0.09890840966536246,3999,448,10,2,110
55.88155554668518,0.05392839969241138,63.08111476784174,0.09890840966536246,3999,448,10,2,111
55.88155554668518,0.05392839969241138,63.08111476784174,0.09325476413493862,3999,448,10,2,112
55.88155554668518,0.05392839969241138,63.08111476784174,0.09325476413493862,3999,384,10,2,113
55.88155554668518,0.05392839969241138,63.08083217043849,0.09325174292100648,3999,384,10,2,114
55.88155554668518,0.05392839969241138,63.08111476784174,0.0972912111891287,3999,384,10,2,115
55.88155554668518,0.05392839969241138,63.08111476784174,0.10134499764968226,3999,384,10,2,116
55.88155554668518,0.05392839969241138,63.08111476784174,0.10134499764968226,3999,128,10,2,117
55.88155554668518,0.05392839969241138,63.08111476784174,0.09890840966536246,3999,0,10,2,118
55.88155554668518,0.05392839969241138,63.08083217043849,0.09890840966536246,3999,0,10,2,119
55.88155554668518,0.05392839969241138,63.08083217043849,0.09728450120088335,3999,0,10,2,120
55.88155554668518,0.05392839969241138,63.08083217043849,0.10134171433304216,3999,0,10,2,121
55.88155554668518,0.05392839969241138,63.08083217043849,0.09728450120088335,3999,256,10,2,122
55.88155554668518,0.05392839969241138,63.08111476784174,0.10134499764968226,3999,256,10,2,123
55.88155554668518,0.05392839969241138,63.08111476784174,0.10134499764968226,3999,256,10,2,124
55.88155554668518,0.05392839969241138,63.08111476784174,0.10134499764968226,3999,256,10,2,125
55.88155554668518,0.05392839969241138,63.08313872143213,0.10134499764968226,3999,256,10,2,126
55.88155554668518,0.05392839969241138,63.08313872143213,0.10290537770980376,3999,448,10,2,127
55.88155554668518,0.05392839969241138,63.08111476784174,0.09729436371051112,3999,448,10,2,128
55.88155554668518,0.05392839969241138,63.079466825895125,0.0972912111891287,3999,448,10,2,129
55.88155554668518,0.05392839969241138,63.079466825895125,0.09728450120088335,3999,448,10,2,130
55.88155554668518,0.05392839969241138,63.08083217043849,0.09728450120088335,3999,448,10,2,131
55.88155554668518,0.05392839969241138,63.08083217043849,0.09728450120088335,3999,256,10,2,132
55.88155554668518,0.05392839969241138,63.08083217043849,0.10134171433304216,3999,256,10,2,133
55.88155554668518,0.05392839969241138,63.08083217043849,0.10134171433304216,3999,256,10,2,134
55.88155554668518,0.05392839969241138,63.079071102356565,0.10134171433304216,3999,256,10,2,135
55.88155554668518,0.05392839969241138,63.079071102356565,0.10134171433304216,3999,256,10,2,136
55.88155554668518,0.05392839969241138,63.077159893402815,0.10134499764968226,3999,256,10,2,137
55.88155554668518,0.05392839969241138,63.08083217043849,0.10134171433304216,3999,384,10,2,138
55.88155554668518,0.05392839969241138,63.08083217043849,0.09728765307001955,3999,384,10,2,139
55.88155554668518,0.05392839969241138,63.085069691441575,0.09728765307001955,3999,384,10,2,140
55.88155554668518,0.05392839969241138,63.08111476784174,0.0972912111891287,3999,384,10,2,141
55.88155554668518,0.05392839969241138,63.08111476784174,0.0972912111891287,3999,384,10,2,142
55.88155554668518,0.05392839969241138,63.08083217043849,0.09728450120088335,3999,384,10,2,143
55.88155554668518,0.05392839969241138,63.079071102356565,0.09728450120088335,3999,384,10,2,144
55.88155554668518,0.05392839969241138,63.079071102356565,0.09728450120088335,3999,384,10,2,145
55.88155554668518,0.05392839969241138,63.079071102356565,0.10133472536500314,3999,384,10,2,146
55.88155554668518,0.05392839969241138,63.0804362525796,0.10133472536500314,3999,384,10,2,147
55.87944593446414,0.05393012038720274,63.0804362525796,0.10133472536500314,3999,256,10,1,149
50.11940571207544,45.71560608553127,63.0804362525796,0.10133472536500314,3999,256,10,1,150
43.725288769730724,45.71560608553127,63.0804362525796,0.10133472536500314,3999,256,10,1,151
43.725288769730724,45.71418119859912,63.0804362525796,0.10133472536500314,3999,256,10,1,152
43.72623177955669,45.71418119859912,63.0804362525796,0.10133472536500314,3999,320,10,1,153
43.72623177955669,45.71418119859912,63.0804362525796,0.10133472536500314,3999,320,10,1,154
43.72623177955669,45.71418119859912,63.0804362525796,0.10133472536500314,3999,320,10,1,155
43.72623177955669,45.71791360160814,63.0804362525796,0.10133472536500314,3999,320,10,1,156
43.727656787839976,45.71418119859912,63.0804362525796,0.10133472536500314,3999,320,10,1,157
43.727656787839976,45.71418119859912,63.0804362525796,0.10133472536500314,3999,256,10,1,158
43.72623177955669,45.71418119859912,63.0804362525796,0.10133472536500314,3999,256,10,1,159
43.725288769730724,45.71418119859912,63.0804362525796,0.10133472536500314,3999,256,10,1,160
43.72623177955669,45.717352574096005,63.0804362525796,0.10133472536500314,3999,256,10,1,161
43.72623177955669,45.717352574096005,63.0804362525796,0.10133472536500314,3999,256,10,1,162
43.727656787839976,45.71560608553127,63.0804362525796,0.10133472536500314,3999,384,10,1,163
43.72623177955669,45.71418119859912,63.0804362525796,0.10133472536500314,3999,384,10,1,164
43.72623177955669,45.71560608553127,63.0804362525796,0.10133472536500314,3999,384,10,1,165
43.725288769730724,45.71418119859912,63.0804362525796,0.10133472536500314,3999,384,10,1,166
43.725288769730724,45.71418119859912,63.0804362525796,0.10133472536500314,3999,384,10,1,167
43.72623177955669,45.71418119859912,63.0804362525796,0.10133472536500314,3999,384,10,1,168
43.72623177955669,45.71418119859912,63.0804362525796,0.10133472536500314,3999,384,10,1,169
43.72623177955669,45.717352574096005,63.0804362525796,0.10133472536500314,3999,384,10,1,170
43.725288769730724,45.717352574096005,63.0804362525796,0.10133472536500314,3999,384,10,1,171
43.725288769730724,45.717352574096005,63.0804362525796,0.10133472536500314,3999,384,10,1,172
43.725288769730724,45.717352574096005,63.0804362525796,0.10133472536500314,3999,448,10,1,173
43.72623177955669,45.717352574096005,63.0804362525796,0.10133472536500314,3999,448,10,1,174
43.72623177955669,45.71418119859912,63.0804362525796,0.10133472536500314,3999,448,10,1,175
43.72623177955669,45.717352574096005,63.0804362525796,0.10133472536500314,3999,448,10,1,176
43.72623177955669,45.717352574096005,63.0804362525796,0.10133472536500314,3999,192,10,1,177
43.72623177955669,45.717352574096005,63.0804362525796,0.10133472536500314,3999,192,10,1,178
43.72623177955669,45.71709613290571,63.0804362525796,0.10133472536500314,3999,192,10,1,179
43.72623177955669,45.71709613290571,63.0804362525796,0.10133472536500314,3999,192,10,1,180
43.725288769730724,45.71709613290571,63.0804362525796,0.10133472536500314,3999,448,10,1,181
43.725288769730724,45.71709613290571,63.0804362525796,0.10133472536500314,3999,448,10,1,182
43.72671394501126,45.71709613290571,63.0804362525796,0.10133472536500314,3999,448,10,1,183
43.72671394501126,45.71709613290571,63.0804362525796,0.10133472536500314,3999,448,10,1,184
43.72671394501126,45.71709613290571,63.0804362525796,0.10133472536500314,3999,448,10,1,185
43.72671394501126,45.71709613290571,63.0804362525796,0.10133472536500314,3999,448,10,1,186
43.727656787839976,45.71709613290571,63.0804362525796,0.10133472536500314,3999,448,10,1,187
43.727656787839976,45.71418119859912,63.0804362525796,0.10133472536500314,3999,320,10,1,188
43.72623177955669,45.7149986885927,63.0804362525796,0.10133472536500314,3999,320,10,1,189
43.72623177955669,45.7149986885927,63.0804362525796,0.10133472536500314,3999,320,10,1,190
43.72623177955669,45.7149986885927,63.0804362525796,0.10133472536500314,3999,320,10,1,191
43.72623177955669,45.71474215194461,63.0804362525796,0.10133472536500314,3999,320,10,1,192
43.72623177955669,45.71392456848261,63.0804362525796,0.10133472536500314,3999,320,10,1,193
43.72623177955669,45.71418119859912,63.0804362525796,0.10133472536500314,3999,320,10,1,194
43.72623177955669,45.71418119859912,63.0804362525796,0.10133472536500314,3999,320,10,1,195
43.72623177955669,45.71418119859912,63.0804362525796,0.10133472536500314,3999,320,10,1,196
43.72623177955669,45.71709613290571,63.0804362525796,0.10133472536500314,3999,320,10,1,197
43.72671394501126,45.71418119859912,63.0804362525796,0.10133472536500314,3999,256,10,1,198
43.72671394501126,45.71418119859912,63.0804362525796,0.10133472536500314,3999,256,10,1,199
43.72623177955669,45.71418119859912,63.0804362525796,0.10133472536500314,3999,256,10,1,200
43.72623177955669,45.71418119859912,63.0804362525796,0.10133472536500314,3999,256,10,1,201
43.72623177955669,45.71418119859912,63.0804362525796,0.10133472536500314,3999,256,10,1,202
43.72623177955669,45.71418119859912,63.0804362525796,0.10133472536500314,3999,256,10,1,203
43.72926524305534,45.71560608553127,63.0804362525796,0.10133472536500314,3999,256,10,1,204
43.72926524305534,45.71560608553127,63.0804362525796,0.10133472536500314,3999,256,10,1,205
43.72800673936978,45.71418119859912,63.0804362525796,0.10133472536500314,3999,256,10,1,206
43.72623177955669,45.71418119859912,63.0804362525796,0.10133472536500314,3999,256,10,1,207
43.727656787839976,45.71418119859912,63.0804362525796,0.10133472536500314,3999,448,10,1,208
43.72623177955669,45.71392456848261,63.0804362525796,0.10133472536500314,3999,448,10,1,209
43.727656787839976,45.71336361335326,63.0804362525796,0.10133472536500314,3999,448,10,1,210
43.72926524305534,45.71336361335326,63.0804362525796,0.10133472536500314,3999,448,10,1,211
43.72926524305534,45.71418119859912,63.0804362525796,0.10133472536500314,3999,448,10,1,212
43.72926524305534,45.71709613290571,63.0804362525796,0.10133472536500314,3999,256,10,1,213
43.727656787839976,45.71709613290571,63.0804362525796,0.10133472536500314,3999,256,10,1,214
43.727656787839976,45.71709613290571,63.0804362525796,0.10133472536500314,3999,256,10,1,215
43.727656787839976,45.717352574096005,63.0804362525796,0.10133472536500314,3999,256,10,1,216
43.72926524305534,45.71709613290571,63.0804362525796,0.10133472536500314,3999,256,10,1,217
43.72926524305534,45.71709613290571,63.0804362525796,0.10133472536500314,3999,256,10,1,218
43.727656787839976,45.71709613290571,63.0804362525796,0.10133472536500314,3999,384,10,1,219
43.727656787839976,45.71418119859912,63.0804362525796,0.10133472536500314,3999,384,10,1,220
43.727656787839976,45.71709613290571,63.0804362525796,0.10133472536500314,3999,384,10,1,221
43.72671394501126,45.71709613290571,63.0804362525796,0.10133472536500314,3999,128,10,1,222
43.72671394501126,45.71709613290571,63.0804362525796,0.10133472536500314,3999,128,10,1,223
43.72671394501126,45.71709613290571,63.0804362525796,0.10133472536500314,3999,128,10,1,224
43.72800673936978,45.717352574096005,63.0804362525796,0.10133472536500314,3999,128,10,1,225
43.72926524305534,45.717352574096005,63.0804362525796,0.10133472536500314,3999,128,10,1,226
43.72926524305534,45.717352574096005,63.0804362525796,0.10133472536500314,3999,128,10,1,227
43.72926524305534,45.717352574096005,63.0804362525796,0.10133472536500314,3999,128,10,1,228
43.72926524305534,45.717352574096005,63.0804362525796,0.10133472536500314,3999,64,10,1,229
43.72623177955669,45.717352574096005,63.0804362525796,0.10133472536500314,3999,64,10,1,230
43.725288769730724,45.717352574096005,63.0804362525796,0.10133472536500314,3999,64,10,1,231
43.725288769730724,45.717352574096005,63.0804362525796,0.10133472536500314,3999,320,10,1,232
43.72926524305534,45.717352574096005,63.0804362525796,0.10133472536500314,3999,384,10,1,233
43.72926524305534,45.717352574096005,63.0804362525796,0.10133472536500314,3999,384,10,1,234
43.72623177955669,45.717352574096005,63.0804362525796,0.10133472536500314,3999,384,10,1,235
43.72623177955669,45.71418119859912,63.0804362525796,0.10133472536500314,3999,384,10,1,236
43.727656787839976,45.71418119859912,63.0804362525796,0.10133472536500314,3999,384,10,1,237
43.727656787839976,45.71392456848261,63.0804362525796,0.10133472536500314,3999,384,10,1,238
43.72926524305534,45.71560608553127,63.0804362525796,0.10133472536500314,3999,384,10,1,239
43.727656787839976,45.71392456848261,63.0804362525796,0.10133472536500314,3999,384,10,1,240
43.72671394501126,45.71560608553127,63.0804362525796,0.10133472536500314,3999,384,10,1,241
43.725288769730724,45.71709613290571,63.0804362525796,0.10133472536500314,3999,384,10,1,242
43.72671394501126,45.71709613290571,63.0804362525796,0.10133472536500314,3999,320,10,1,243
43.72671394501126,45.717352574096005,63.0804362525796,0.10133472536500314,3999,320,10,1,244
43.72671394501126,45.71709613290571,63.0804362525796,0.10133472536500314,3999,320,10,1,245
43.727656787839976,45.71418119859912,63.0804362525796,0.10133472536500314,3999,320,10,1,246
43.72623177955669,45.71418119859912,63.0804362525796,0.10133472536500314,3999,320,10,1,247
43.72623177955669,45.71418119859912,63.079071102356565,0.10134171433304216,3999,256,10,2,249
43.72623177955669,45.71418119859912,18.480718367666412,3.160975617382542,3999,256,10,2,250
43.72623177955669,45.71418119859912,18.477262135336723,3.161162935530117,3999,256,10,2,251
43.72623177955669,45.71418119859912,18.477262135336723,3.164680299870609,3999,256,10,2,252
43.72623177955669,45.71418119859912,18.477262135336723,3.164680299870609,3999,320,10,2,253
43.72623177955669,45.71418119859912,18.47426423237012,3.1610692799394418,3999,320,10,2,254
43.72623177955669,45.71418119859912,18.47426423237012,3.1610692799394418,3999,320,10,2,255
43.72623177955669,45.71418119859912,18.47426423237012,3.164680299870609,3999,320,10,2,0
43.72623177955669,45.71418119859912,18.46740250653417,3.164680299870609,3999,320,10,2,1
43.72623177955669,45.71418119859912,18.46740250653417,3.164586530319104,3999,320,10,2,2
43.72623177955669,45.71418119859912,18.467194754941204,3.164586530319104,3999,448,10,2,3
43.72623177955669,45.71418119859912,18.481326512046035,3.1644811748528423,3999,448,10,2,4
43.72623177955669,45.71418119859912,18.478200490979418,3.1644811748528423,3999,448,10,2,5
43.72623177955669,45.71418119859912,18.478200490979418,3.1644811748528423,3999,448,10,2,6
43.72623177955669,45.71418119859912,18.47032832231368,3.164680299870609,3999,448,10,2,7
43.72623177955669,45.71418119859912,18.469839475886847,3.164680299870609,3999,384,10,2,8
43.72623177955669,45.71418119859912,18.461230904316846,3.164680299870609,3999,384,10,2,9
43.72623177955669,45.71418119859912,18.458573397784228,3.164680299870609,3999,384,10,2,10
43.72623177955669,45.71418119859912,18.456354991856795,3.164680299870609,3999,384,10,2,11
43.72623177955669,45.71418119859912,18.456354991856795,3.164680299870609,3999,384,10,2,12
43.72623177955669,45.71418119859912,18.469839475886847,3.164680299870609,3999,256,10,2,13
43.72623177955669,45.71418119859912,18.47540834197108,3.1644811748528423,3999,256,10,2,14
43.72623177955669,45.71418119859912,18.47540834197108,3.164586530319104,3999,256,10,2,15
43.72623177955669,45.71418119859912,18.47540834197108,3.164586530319104,3999,256,10,2,16
43.72623177955669,45.71418119859912,18.47949492951572,3.164680299870609,3999,192,10,2,17
43.72623177955669,45.71418119859912,18.47949492951572,3.164680299870609,3999,192,10,2,18
43.72623177955669,45.71418119859912,18.470665683873058,3.164680299870609,3999,192,10,2,19
43.72623177955669,45.71418119859912,18.465994093801427,3.164680299870609,3999,192,10,2,20
43.72623177955669,45.71418119859912,18.465994093801427,3.164680299870609,3999,320,10,2,21
43.72623177955669,45.71418119859912,18.465994093801427,3.164680299870609,3999,320,10,2,22
43.72623177955669,45.71418119859912,18.463256383396622,3.164680299870609,3999,320,10,2,23
43.72623177955669,45.71418119859912,18.46878562307829,3.164680299870609,3999,320,10,2,24
43.72623177955669,45.71418119859912,18.46878562307829,3.164680299870609,3999,320,10,2,25
43.72623177955669,45.71418119859912,18.472632610986906,3.164680299870609,3999,320,10,2,26
43.72623177955669,45.71418119859912,18.473795058555893,3.164680299870609,3999,384,10,2,27
43.72623177955669,45.71418119859912,18.473795058555893,3.1612682000055337,3999,384,10,2,28
43.72623177955669,45.71418119859912,18.47602344604428,3.1612682000055337,3999,384,10,2,29
43.72623177955669,45.71418119859912,18.47602344604428,3.164680299870609,3999,384,10,2,30
43.72623177955669,45.71418119859912,18.48047203536501,3.164680299870609,3999,384,10,2,31
43.72623177955669,45.71418119859912,18.462743212383103,3.164680299870609,3999,448,10,2,32
43.72623177955669,45.71418119859912,18.48214266952491,3.164680299870609,3999,448,10,2,33
43.72623177955669,45.71418119859912,18.48214266952491,3.164680299870609,3999,448,10,2,34
43.72623177955669,45.71418119859912,18.48214266952491,3.164680299870609,3999,448,10,2,35
43.72623177955669,45.71418119859912,18.460884570515063,3.164680299870609,3999,448,10,2,36
43.72623177955669,45.71418119859912,18.460884570515063,3.164680299870609,3999,384,10,2,37
43.72623177955669,45.71418119859912,18.460884570515063,3.164680299870609,3999,384,10,2,38
43.72623177955669,45.71418119859912,18.47949492951572,3.164680299870609,3999,384,10,2,39
43.72623177955669,45.71418119859912,18.47366079012777,3.164680299870609,3999,384,10,2,40
43.72623177955669,45.71418119859912,18.47366079012777,3.164680299870609,3999,384,10,2,41
43.72623177955669,45.71418119859912,18.46380346632636,3.164680299870609,3999,384,10,2,42
43.72623177955669,45.71418119859912,18.46380346632636,3.164586530319104,3999,384,10,2,43
43.72623177955669,45.71418119859912,18.46380346632636,3.164680299870609,3999,384,10,2,44
43.72623177955669,45.71418119859912,18.47219767677688,3.164586530319104,3999,384,10,2,45
43.72623177955669,45.71418119859912,18.47219767677688,3.164680299870609,3999,384,10,2,46
43.72623177955669,45.71418119859912,18.47219767677688,3.164680299870609,3999,384,10,2,47
43.72623177955669,45.71418119859912,18.481800106788054,3.164680299870609,3999,320,10,2,48
43.72623177955669,45.71418119859912,18.48047203536501,3.164680299870609,3999,320,10,2,49
43.72623177955669,45.71418119859912,18.48047203536501,3.164680299870609,3999,320,10,2,50
43.72623177955669,45.71418119859912,18.47936328892448,3.164680299870609,3999,320,10,2,51
43.72623177955669,45.71418119859912,18.47936328892448,3.164680299870609,3999,320,10,2,52
43.72623177955669,45.71418119859912,18.47936328892448,3.164680299870609,3999,320,10,2,53
43.72623177955669,45.71418119859912,18.483093448490468,3.164680299870609,3999,320,10,2,54
43.72623177955669,45.71418119859912,18.48865986716117,3.164680299870609,3999,320,10,2,55
43.72623177955669,45.71418119859912,18.48865986716117,3.164680299870609,3999,320,10,2,56
43.72623177955669,45.71418119859912,18.465771969918325,3.164680299870609,3999,320,10,2,57
43.72623177955669,45.71418119859912,18.461289419619472,3.164680299870609,3999,320,10,2,58
43.72623177955669,45.71418119859912,18.461504499197805,3.164680299870609,3999,320,10,2,59
43.72623177955669,45.71418119859912,18.461504499197805,3.164680299870609,3999,320,10,2,60
43.72623177955669,45.71418119859912,18.49030778933901,3.164680299870609,3999,320,10,2,61
43.72623177955669,45.71418119859912,18.49030778933901,3.164586530319104,3999,64,10,2,62
43.72623177955669,45.71418119859912,18.49077021776761,3.164586530319104,3999,0,10,2,63
43.72623177955669,45.71418119859912,18.47602344604428,3.164680299870609,3999,0,10,2,64
43.72623177955669,45.71418119859912,18.466113138958445,3.164680299870609,3999,0,10,2,65
43.72623177955669,45.71418119859912,18.466113138958445,3.164680299870609,3999,0,10,2,66
43.72623177955669,45.71418119859912,18.471616636169024,3.164680299870609,3999,256,10,2,67
43.72623177955669,45.71418119859912,18.487519227078483,3.164680299870609,3999,320,10,2,68
43.72623177955669,45.71418119859912,18.471616636169024,3.164586530319104,3999,320,10,2,69
43.72623177955669,45.71418119859912,18.466520099988134,3.164586530319104,3999,320,10,2,70
43.72623177955669,45.71418119859912,18.466520099988134,3.164586530319104,3999,320,10,2,71
43.72623177955669,45.71418119859912,18.463256383396622,3.164680299870609,3999,448,10,2,72
43.72623177955669,45.71418119859912,18.4772004497756,3.164680299870609,3999,448,10,2,73
43.72623177955669,45.71418119859912,18.46878562307829,3.164680299870609,3999,448,10,2,74
43.72623177955669,45.71418119859912,18.4772004497756,3.164680299870609,3999,448,10,2,75
43.72623177955669,45.71418119859912,18.46878562307829,3.164680299870609,3999,448,10,2,76
43.72623177955669,45.71418119859912,18.481595043204155,3.164586530319104,3999,448,10,2,77
43.72623177955669,45.71418119859912,18.481595043204155,3.164680299870609,3999,384,10,2,78
43.72623177955669,45.71418119859912,18.481595043204155,3.164586530319104,3999,384,10,2,79
43.72623177955669,45.71418119859912,18.4716863651473,3.1610692799394418,3999,384,10,2,80
43.72623177955669,45.71418119859912,18.4716863651473,3.1610692799394418,3999,384,10,2,81
43.72623177955669,45.71418119859912,18.4716863651473,3.1610692799394418,3999,384,10,2,82
43.72623177955669,45.71418119859912,18.482624764944045,3.1610692799394418,3999,320,10,2,83
43.72623177955669,45.71418119859912,18.466113138958445,3.1612682000055337,3999,320,10,2,84
43.72623177955669,45.71418119859912,18.466113138958445,3.164680299870609,3999,320,10,2,85
43.72623177955669,45.71418119859912,18.466113138958445,3.164680299870609,3999,320,10,2,86
43.72623177955669,45.71418119859912,18.46162557724409,3.164586530319104,3999,320,10,2,87
43.72623177955669,45.71418119859912,18.46162557724409,3.164586530319104,3999,384,10,2,88
43.72623177955669,45.71418119859912,18.46162557724409,3.164586530319104,3999,384,10,2,89
43.72623177955669,45.71418119859912,18.47426423237012,3.164586530319104,3999,384,10,2,90
43.72623177955669,45.71418119859912,18.47426423237012,3.1612682000055337,3999,384,10,2,91
43.727656787839976,45.71392456848261,18.47426423237012,3.1612682000055337,3999,384,10,1,93
43.73009769933532,45.71653510357857,18.47426423237012,3.1612682000055337,3999,384,10,1,94
43.73009769933532,45.71653510357857,18.47426423237012,3.1612682000055337,3999,384,10,1,95
43.72671394501126,45.71653510357857,18.47426423237012,3.1612682000055337,3999,384,10,1,96
43.72671394501126,45.71560608553127,18.47426423237012,3.1612682000055337,3999,384,10,1,97
43.727656787839976,45.71418119859912,18.47426423237012,3.1612682000055337,3999,448,10,1,98
43.727656787839976,45.71418119859912,18.47426423237012,3.1612682000055337,3999,448,10,1,99
43.72623177955669,45.71418119859912,18.47426423237012,3.1612682000055337,3999,448,10,1,100
43.72623177955669,45.71418119859912,18.47426423237012,3.1612682000055337,3999,448,10,1,101
43.725288769730724,45.71418119859912,18.47426423237012,3.1612682000055337,3999,448,10,1,102
43.725288769730724,45.71560608553127,18.47426423237012,3.1612682000055337,3999,448,10,1,103
43.725288769730724,45.71418119859912,18.47426423237012,3.1612682000055337,3999,448,10,1,104
43.725288769730724,45.71560608553127,18.47426423237012,3.1612682000055337,3999,448,10,1,105
43.72623177955669,45.717352574096005,18.47426423237012,3.1612682000055337,3999,448,10,1,106
43.725288769730724,45.717352574096005,18.47426423237012,3.1612682000055337,3999,448,10,1,107
43.727656787839976,45.71392456848261,18.47426423237012,3.1612682000055337,3999,320,10,1,108
43.727656787839976,45.71392456848261,18.47426423237012,3.1612682000055337,3999,320,10,1,109
43.727656787839976,45.71392456848261,18.47426423237012,3.1612682000055337,3999,320,10,1,110
43.727656787839976,45.71418119859912,18.47426423237012,3.1612682000055337,3999,320,10,1,111
43.72623177955669,45.716423734316756,18.47426423237012,3.1612682000055337,3999,320,10,1,112
43.72493900441112,45.716423734316756,18.47426423237012,3.1612682000055337,3999,384,10,1,113
43.72623177955669,45.71709613290571,18.47426423237012,3.1612682000055337,3999,384,10,1,114
43.725288769730724,45.717352574096005,18.47426423237012,3.1612682000055337,3999,384,10,1,115
43.72623177955669,45.717352574096005,18.47426423237012,3.1612682000055337,3999,384,10,1,116
43.72623177955669,45.716423734316756,18.47426423237012,3.1612682000055337,3999,384,10,1,117
43.72623177955669,45.71560608553127,18.47426423237012,3.1612682000055337,3999,448,10,1,118
43.72671394501126,45.71560608553127,18.47426423237012,3.1612682000055337,3999,448,10,1,119
43.72623177955669,45.71243483118689,18.47426423237012,3.1612682000055337,3999,448,10,1,120
43.72671394501126,45.71709613290571,18.47426423237012,3.1612682000055337,3999,448,10,1,121
43.72926524305534,45.71709613290571,18.47426423237012,3.1612682000055337,3999,448,10,1,122
43.730690547944434,45.717352574096005,18.47426423237012,3.1612682000055337,3999,320,10,1,123
43.730690547944434,45.71709613290571,18.47426423237012,3.1612682000055337,3999,320,10,1,124
43.72926524305534,45.71709613290571,18.47426423237012,3.1612682000055337,3999,320,10,1,125
43.72891576875313,45.71560608553127,18.47426423237012,3.1612682000055337,3999,320,10,1,126
43.727656787839976,45.71418119859912,18.47426423237012,3.1612682000055337,3999,320,10,1,127
43.72623177955669,45.71418119859912,18.47426423237012,3.1612682000055337,3999,320,10,1,128
43.72623177955669,45.71418119859912,18.47426423237012,3.1612682000055337,3999,384,10,1,129
43.72623177955669,45.71418119859912,18.47426423237012,3.1612682000055337,3999,384,10,1,130
43.72623177955669,45.71418119859912,18.47426423237012,3.1612682000055337,3999,384,10,1,131
43.72623177955669,45.71392456848261,18.47426423237012,3.1612682000055337,3999,128,10,1,132
43.72623177955669,45.71418119859912,18.47426423237012,3.1612682000055337,3999,128,10,1,133
43.72623177955669,45.71418119859912,18.47426423237012,3.1612682000055337,3999,64,10,1,134
43.72623177955669,45.71418119859912,18.47426423237012,3.1612682000055337,3999,64,10,1,135
43.72623177955669,45.717352574096005,18.47426423237012,3.1612682000055337,3999,320,10,1,136
43.72623177955669,45.717352574096005,18.47426423237012,3.1612682000055337,3999,320,10,1,137
43.72623177955669,45.717352574096005,18.47426423237012,3.1612682000055337,3999,384,10,1,138
43.727656787839976,45.71418119859912,18.47426423237012,3.1612682000055337,3999,384,10,1,139
43.727656787839976,45.71392456848261,18.47426423237012,3.1612682000055337,3999,384,10,1,140
43.727656787839976,45.71392456848261,18.47426423237012,3.1612682000055337,3999,384,10,1,141
43.72623177955669,45.71418119859912,18.47426423237012,3.1612682000055337,3999,384,10,1,142
43.72623177955669,45.71418119859912,18.47426423237012,3.1612682000055337,3999,384,10,1,143
43.72623177955669,45.71418119859912,18.47426423237012,3.1612682000055337,3999,384,10,1,144
43.72623177955669,45.71418119859912,18.47426423237012,3.1612682000055337,3999,384,10,1,145
43.72623177955669,45.71418119859912,18.47426423237012,3.1612682000055337,3999,384,10,1,146
43.72623177955669,45.71418119859912,18.47426423237012,3.1612682000055337,3999,384,10,1,147
43.727656787839976,45.71418119859912,18.47426423237012,3.1612682000055337,3999,448,10,1,148
43.72800673936978,45.71418119859912,18.47426423237012,3.1612682000055337,3999,448,10,1,149
43.72800673936978,45.717352574096005,18.47426423237012,3.1612682000055337,3999,448,10,1,150
43.72623177955669,45.717352574096005,18.47426423237012,3.1612682000055337,3999,448,10,1,151
43.72623177955669,45.71709613290571,18.47426423237012,3.1612682000055337,3999,448,10,1,152
43.72623177955669,45.71418119859912,18.47426423237012,3.1612682000055337,3999,448,10,1,153
43.72623177955669,45.71709613290571,18.47426423237012,3.1612682000055337,3999,448,10,1,154
43.727656787839976,45.71418119859912,18.47426423237012,3.1612682000055337,3999,448,10,1,155
43.727656787839976,45.71418119859912,18.47426423237012,3.1612682000055337,3999,448,10,1,156
43.727656787839976,45.71392456848261,18.47426423237012,3.1612682000055337,3999,448,10,1,157
43.72623177955669,45.71418119859912,18.47426423237012,3.1612682000055337,3999,448,10,1,158
43.72623177955669,45.71418119859912,18.47426423237012,3.1612682000055337,3999,448,10,1,159
43.725288769730724,45.71418119859912,18.47426423237012,3.1612682000055337,3999,448,10,1,160
43.7222555820768,45.71418119859912,18.47426423237012,3.1612682000055337,3999,448,10,1,161
43.7222555820768,45.71418119859912,18.47426423237012,3.1612682000055337,3999,448,10,1,162
43.72623177955669,45.71418119859912,18.47426423237012,3.1612682000055337,3999,320,10,1,163
43.72623177955669,45.71418119859912,18.47426423237012,3.1612682000055337,3999,320,10,1,164
43.727656787839976,45.71567099280779,18.47426423237012,3.1612682000055337,3999,320,10,1,165
43.727656787839976,45.71392456848261,18.47426423237012,3.1612682000055337,3999,320,10,1,166
43.727656787839976,45.71418119859912,18.47426423237012,3.1612682000055337,3999,320,10,1,167
43.72623177955669,45.71392456848261,18.47426423237012,3.1612682000055337,3999,320,10,1,168
43.72623177955669,45.71418119859912,18.47426423237012,3.1612682000055337,3999,448,10,1,169
43.727656787839976,45.71567099280779,18.47426423237012,3.1612682000055337,3999,448,10,1,170
43.727656787839976,45.71567099280779,18.47426423237012,3.1612682000055337,3999,448,10,1,171
43.7222555820768,45.71418119859912,18.47426423237012,3.1612682000055337,3999,448,10,1,172
43.7222555820768,45.71418119859912,18.47426423237012,3.1612682000055337,3999,448,10,1,173
43.72623177955669,45.71418119859912,18.47426423237012,3.1612682000055337,3999,320,10,1,174
43.72623177955669,45.71392456848261,18.47426423237012,3.1612682000055337,3999,320,10,1,175
43.72623177955669,45.71392456848261,18.47426423237012,3.1612682000055337,3999,320,10,1,176
43.725288769730724,45.717352574096005,18.47426423237012,3.1612682000055337,3999,320,10,1,177
43.725288769730724,45.717352574096005,18.47426423237012,3.1612682000055337,3999,64,10,1,178
43.72623177955669,45.71418119859912,18.47426423237012,3.1612682000055337,3999,0,10,1,179
43.72623177955669,45.71392456848261,18.47426423237012,3.1612682000055337,3999,0,10,1,180
43.72623177955669,45.71392456848261,18.47426423237012,3.1612682000055337,3999,0,10,1,181
43.727656787839976,45.71392456848261,18.47426423237012,3.1612682000055337,3999,0,10,1,182
43.727656787839976,45.71418119859912,18.47426423237012,3.1612682000055337,3999,0,10,1,183
43.72623177955669,45.717352574096005,18.47426423237012,3.1612682000055337,3999,64,10,1,184
43.72623177955669,45.71418119859912,18.47426423237012,3.1612682000055337,3999,64,10,1,185
43.72623177955669,45.71816994935872,18.47426423237012,3.1612682000055337,3999,64,10,1,186
43.72623177955669,45.71392456848261,18.47426423237012,3.1612682000055337,3999,256,10,1,187
43.727656787839976,45.71392456848261,18.47426423237012,3.1612682000055337,3999,256,10,1,188
43.727656787839976,45.71392456848261,18.47426423237012,3.1612682000055337,3999,256,10,1,189
43.72623177955669,45.71392456848261,18.47426423237012,3.1612682000055337,3999,256,10,1,190
43.72623177955669,45.71709613290571,18.47426423237012,3.1612682000055337,3999,256,10,1,191
43.72623177955669,45.71709613290571,18.440786889889996,3.1612682000055337,3999,256,10,2,193
43.72623177955669,45.71709613290571,13.226177973188301,6.7281458235079805,3999,320,10,2,194
43.72623177955669,45.71709613290571,13.222493666388159,6.7281458235079805,3999,320,10,2,195
43.72623177955669,45.71709613290571,13.222493666388159,6.731421385705767,3999,320,10,2,196
43.72623177955669,45.71709613290571,13.225326204169235,6.731421385705767,3999,320,10,2,197
43.72623177955669,45.71709613290571,13.225326204169235,6.731421385705767,3999,320,10,2,198
43.72623177955669,45.71709613290571,13.225326204169235,6.731421385705767,3999,320,10,2,199
43.72623177955669,45.71709613290571,13.225326204169235,6.731421385705767,3999,320,10,2,200
43.72623177955669,45.71709613290571,13.225326204169235,6.731421385705767,3999,320,10,2,201
43.72623177955669,45.71709613290571,13.22572695900023,6.731421385705767,3999,320,10,2,202
43.72623177955669,45.71709613290571,13.22572695900023,6.7281458235079805,3999,256,10,2,203
43.72623177955669,45.71709613290571,13.225326204169235,6.7281458235079805,3999,256,10,2,204
43.72623177955669,45.71709613290571,13.222894387001068,6.728349726552759,3999,256,10,2,205
43.72623177955669,45.71709613290571,13.222894387001068,6.728349726552759,3999,256,10,2,206
43.72623177955669,45.71709613290571,13.222894387001068,6.728349726552759,3999,256,10,2,207
43.72623177955669,45.71709613290571,13.225326204169235,6.731421385705767,3999,448,10,2,208
43.72623177955669,45.71709613290571,13.225326204169235,6.731421385705767,3999,448,10,2,209
43.72623177955669,45.71709613290571,13.225326204169235,6.731421385705767,3999,448,10,2,210
43.72623177955669,45.71709613290571,13.22572695900023,6.7316253617437205,3999,448,10,2,211
43.72623177955669,45.71709613290571,13.22572695900023,6.7316253617437205,3999,448,10,2,212
43.72623177955669,45.71709613290571,13.22572695900023,6.7316253617437205,3999,320,10,2,213
43.72623177955669,45.71709613290571,13.225326204169235,6.731421385705767,3999,320,10,2,214
43.72623177955669,45.71709613290571,13.225326204169235,6.731421385705767,3999,320,10,2,215
43.72623177955669,45.71709613290571,13.22572695900023,6.7316253617437205,3999,320,10,2,216
43.72623177955669,45.71709613290571,13.22572695900023,6.7316253617437205,3999,320,10,2,217
43.72623177955669,45.71709613290571,13.22572695900023,6.7316253617437205,3999,320,10,2,218
43.72623177955669,45.71709613290571,13.225326204169235,6.731421385705767,3999,448,10,2,219
43.72623177955669,45.71709613290571,13.225326204169235,6.731421385705767,3999,448,10,2,220
43.72623177955669,45.71709613290571,13.225326204169235,6.731421385705767,3999,448,10,2,221
43.72623177955669,45.71709613290571,13.225326204169235,6.731421385705767,3999,448,10,2,222
43.72623177955669,45.71709613290571,13.225326204169235,6.731421385705767,3999,448,10,2,223
43.72623177955669,45.71709613290571,13.225326204169235,6.731421385705767,3999,448,10,2,224
43.72623177955669,45.71709613290571,13.225326204169235,6.731421385705767,3999,448,10,2,225
43.72623177955669,45.71709613290571,13.225326204169235,6.731421385705767,3999,448,10,2,226
43.72623177955669,45.71709613290571,13.225326204169235,6.731421385705767,3999,448,10,2,227
43.72623177955669,45.71709613290571,13.225326204169235,6.731421385705767,3999,448,10,2,228
43.72623177955669,45.71709613290571,13.225326204169235,6.731421385705767,3999,384,10,2,229
43.72623177955669,45.71709613290571,13.22572695900023,6.7316253617437205,3999,384,10,2,230
43.72623177955669,45.71709613290571,13.22572695900023,6.7316253617437205,3999,384,10,2,231
43.72623177955669,45.71709613290571,13.225326204169235,6.731421385705767,3999,384,10,2,232
43.72623177955669,45.71709613290571,13.224474532708298,6.7309879022969445,3999,384,10,2,233
43.72623177955669,45.71709613290571,13.224474532708298,6.731421385705767,3999,256,10,2,234
43.72623177955669,45.71709613290571,13.224474532708298,6.731421385705767,3999,256,10,2,235
43.72623177955669,45.71709613290571,13.225326204169235,6.731421385705767,3999,256,10,2,236
43.72623177955669,45.71709613290571,13.225326204169235,6.731421385705767,3999,256,10,2,237
43.72623177955669,45.71709613290571,13.225326204169235,6.731421385705767,3999,128,10,2,238
43.72623177955669,45.71709613290571,13.225326204169235,6.731421385705767,3999,128,10,2,239
43.72623177955669,45.71709613290571,13.225326204169235,6.731421385705767,3999,128,10,2,240
43.72623177955669,45.71709613290571,13.22572695900023,6.7316253617437205,3999,128,10,2,241
43.72623177955669,45.71709613290571,13.225326204169235,6.731421385705767,3999,256,10,2,242
43.72623177955669,45.71709613290571,13.22572695900023,6.731421385705767,3999,256,10,2,243
43.72623177955669,45.71709613290571,13.225326204169235,6.731217394112316,3999,256,10,2,244
43.72623177955669,45.71709613290571,13.22572695900023,6.731217394112316,3999,256,10,2,245
43.72623177955669,45.71709613290571,13.22492541877612,6.731217394112316,3999,256,10,2,246
43.72623177955669,45.71709613290571,13.225326204169235,6.731421385705767,3999,256,10,2,247
43.72623177955669,45.71709613290571,13.225326204169235,6.731421385705767,3999,256,10,2,248
43.72623177955669,45.71709613290571,13.22572695900023,6.731421385705767,3999,256,10,2,249
43.72623177955669,45.71709613290571,13.226177973188301,6.7316253617437205,3999,256,10,2,250
43.72623177955669,45.71709613290571,13.226177973188301,6.731421385705767,3999,256,10,2,251
43.72623177955669,45.71709613290571,13.225326204169235,6.731421385705767,3999,256,10,2,252
43.72623177955669,45.71709613290571,13.225326204169235,6.731421385705767,3999,256,10,2,253
43.72623177955669,45.71709613290571,13.225326204169235,6.731421385705767,3999,256,10,2,254
43.72623177955669,45.71709613290571,13.225326204169235,6.731421385705767,3999,256,10,2,255
43.72623177955669,45.71709613290571,13.226177973188301,6.7318549187696854,3999,256,10,2,0
43.72623177955669,45.71709613290571,13.226177973188301,6.7318549187696854,3999,256,10,2,1
43.72623177955669,45.71709613290571,13.225326204169235,6.731421385705767,3999,256,10,2,2
43.72623177955669,45.71709613290571,13.225326204169235,6.731421385705767,3999,256,10,2,3
43.72623177955669,45.71709613290571,13.225326204169235,6.731421385705767,3999,256,10,2,4
43.72623177955669,45.71709613290571,13.225326204169235,6.731421385705767,3999,256,10,2,5
43.72623177955669,45.71709613290571,13.225326204169235,6.731421385705767,3999,256,10,2,6
43.72623177955669,45.71709613290571,13.225326204169235,6.731421385705767,3999,256,10,2,7
43.72623177955669,45.71709613290571,13.225326204169235,6.731421385705767,3999,384,10,2,8
43.72623177955669,45.71709613290571,13.225326204169235,6.731421385705767,3999,384,10,2,9
43.72623177955669,45.71709613290571,13.225326204169235,6.727916392962589,3999,384,10,2,10
43.72623177955669,45.71709613290571,13.22572695900023,6.727916392962589,3999,384,10,2,11
43.72623177955669,45.71709613290571,13.22572695900023,6.727916392962589,3999,384,10,2,12
43.72623177955669,45.71709613290571,13.226177973188301,6.7281458235079805,3999,384,10,2,13
43.72623177955669,45.71709613290571,13.225326204169235,6.7281458235079805,3999,384,10,2,14
43.72623177955669,45.71709613290571,13.225326204169235,6.7281458235079805,3999,384,10,2,15
43.72623177955669,45.71709613290571,13.222493666388159,6.7281458235079805,3999,384,10,2,16
43.72623177955669,45.71709613290571,13.225326204169235,6.7281458235079805,3999,384,10,2,17
43.72623177955669,45.71709613290571,13.225326204169235,6.7281458235079805,3999,320,10,2,18
43.72623177955669,45.71709613290571,13.225326204169235,6.727712529310681,3999,320,10,2,19
43.72623177955669,45.71709613290571,13.22164213463933,6.727712529310681,3999,320,10,2,20
43.72623177955669,45.71709613290571,13.22164213463933,6.727712529310681,3999,320,10,2,21
43.72623177955669,45.71709613290571,13.22164213463933,6.727712529310681,3999,320,10,2,22
43.72623177955669,45.71709613290571,13.225326204169235,6.727916392962589,3999,320,10,2,23
43.72623177955669,45.71709613290571,13.225326204169235,6.727712529310681,3999,320,10,2,24
43.72623177955669,45.71709613290571,13.22572695900023,6.727916392962589,3999,320,10,2,25
43.72623177955669,45.71709613290571,13.225326204169235,6.727712529310681,3999,320,10,2,26
43.72623177955669,45.71709613290571,13.22164213463933,6.731421385705767,3999,192,10,2,27
43.72623177955669,45.71709613290571,13.22164213463933,6.731421385705767,3820,192,10,2,28
43.72623177955669,45.71709613290571,13.225326204169235,6.731421385705767,3378,192,10,2,29
43.72623177955669,45.71709613290571,13.225326204169235,6.731421385705767,2887,192,10,2,30
43.72623177955669,45.71709613290571,13.225326204169235,6.731421385705767,2371,192,10,2,31
43.72623177955669,45.71709613290571,13.22572695900023,6.7316253617437205,1850,192,10,2,32
43.72623177955669,45.71709613290571,13.22572695900023,6.7316253617437205,1340,192,10,2,33
43.72623177955669,45.71709613290571,13.225326204169235,6.727712529310681,851,0,10,2,34
43.72623177955669,45.71709613290571,13.225326204169235,6.727712529310681,394,0,10,2,35
43.72671394501126,45.71709613290571,13.225326204169235,6.727712529310681,0,256,10,1,37
43.72671394501126,45.71709613290571,13.225326204169235,6.727712529310681,0,256,10,1,38
43.72832233180034,45.71653510357857,13.225326204169235,6.727712529310681,0,448,10,1,39
43.72623177955669,45.71243483118689,13.225326204169235,6.727712529310681,0,448,10,1,40
43.72623177955669,45.71243483118689,13.225326204169235,6.727712529310681,0,448,10,1,41
43.72623177955669,45.71243483118689,13.225326204169235,6.727712529310681,0,448,10,1,42
43.72623177955669,45.71418119859912,13.225326204169235,6.727712529310681,0,448,10,1,43
43.72623177955669,45.71418119859912,13.225326204169235,6.727712529310681,0,256,10,1,44
43.727656787839976,45.71392456848261,13.225326204169235,6.727712529310681,0,256,10,1,45
43.727656787839976,45.71392456848261,13.225326204169235,6.727712529310681,0,256,10,1,46
43.727656787839976,45.71392456848261,13.225326204169235,6.727712529310681,0,256,10,1,47
43.727656787839976,45.717352574096005,13.225326204169235,6.727712529310681,0,256,10,1,48
43.72623177955669,45.717352574096005,13.225326204169235,6.727712529310681,0,256,10,1,49
43.72623177955669,45.71567099280779,13.225326204169235,6.727712529310681,0,256,10,1,50
43.727656787839976,45.71567099280779,13.225326204169235,6.727712529310681,0,256,10,1,51
43.727656787839976,45.71567099280779,13.225326204169235,6.727712529310681,0,256,10,1,52
43.72926524305534,45.71709613290571,13.225326204169235,6.727712529310681,0,448,10,1,53
43.727656787839976,45.71418119859912,13.225326204169235,6.727712529310681,0,448,10,1,54
43.727656787839976,45.71392456848261,13.225326204169235,6.727712529310681,0,448,10,1,55
43.727656787839976,45.71392456848261,13.225326204169235,6.727712529310681,0,448,10,1,56
43.72671394501126,45.71392456848261,13.225326204169235,6.727712529310681,0,448,10,1,57
43.72671394501126,45.71709613290571,13.225326204169235,6.727712529310681,0,448,10,1,58
43.7258821317717,45.71418119859912,13.225326204169235,6.727712529310681,0,448,10,1,59
43.72623177955669,45.71418119859912,13.225326204169235,6.727712529310681,0,448,10,1,60
43.725288769730724,45.71418119859912,13.225326204169235,6.727712529310681,0,448,10,1,61
43.72623177955669,45.717352574096005,13.225326204169235,6.727712529310681,0,448,10,1,62
43.72926524305534,45.717352574096005,13.225326204169235,6.727712529310681,0,384,10,1,63
43.72926524305534,45.717352574096005,13.225326204169235,6.727712529310681,0,384,10,1,64
43.72706401410325,45.717352574096005,13.225326204169235,6.727712529310681,0,384,10,1,65
43.72706401410325,45.717352574096005,13.225326204169235,6.727712529310681,0,384,10,1,66
43.72706401410325,45.717352574096005,13.225326204169235,6.727712529310681,0,384,10,1,67
43.72623177955669,45.717352574096005,13.225326204169235,6.727712529310681,0,448,10,1,68
43.725288769730724,45.717352574096005,13.225326204169235,6.727712529310681,0,448,10,1,69
43.725288769730724,45.717352574096005,13.225326204169235,6.727712529310681,0,448,10,1,70
43.725288769730724,45.71884267839522,13.225326204169235,6.727712529310681,0,448,10,1,71
43.72671394501126,45.71884267839522,13.225326204169235,6.727712529310681,0,448,10,1,72
43.72623177955669,45.71709613290571,13.225326204169235,6.727712529310681,0,384,10,1,73
43.72623177955669,45.71709613290571,13.225326204169235,6.727712529310681,0,384,10,1,74
43.72623177955669,45.71884267839522,13.225326204169235,6.727712529310681,0,384,10,1,75
43.725288769730724,45.71884267839522,13.225326204169235,6.727712529310681,0,384,10,1,76
43.72623177955669,45.71816994935872,13.225326204169235,6.727712529310681,0,384,10,1,77
43.72623177955669,45.717352574096005,13.225326204169235,6.727712529310681,0,384,10,1,78
43.72891576875313,45.717352574096005,13.225326204169235,6.727712529310681,0,256,10,1,79
43.72891576875313,45.717352574096005,13.225326204169235,6.727712529310681,0,256,10,1,80
43.72671394501126,45.717352574096005,13.225326204169235,6.727712529310681,0,256,10,1,81
43.72671394501126,45.717352574096005,13.225326204169235,6.727712529310681,0,256,10,1,82
43.727656787839976,45.717352574096005,13.225326204169235,6.727712529310681,0,256,10,1,83
43.727656787839976,45.717352574096005,13.225326204169235,6.727712529310681,0,256,10,1,84
43.727656787839976,45.717352574096005,13.225326204169235,6.727712529310681,0,256,10,1,85
43.727656787839976,45.717352574096005,13.225326204169235,6.727712529310681,0,256,10,1,86
43.727656787839976,45.717352574096005,13.225326204169235,6.727712529310681,0,256,10,1,87
43.72623177955669,45.717352574096005,13.225326204169235,6.727712529310681,0,64,10,1,88
43.72623177955669,45.71816994935872,13.225326204169235,6.727712529310681,0,64,10,1,89
43.72623177955669,45.717352574096005,13.225326204169235,6.727712529310681,0,64,10,1,90
43.72926524305534,45.717352574096005,13.225326204169235,6.727712529310681,0,320,10,1,91
43.72926524305534,45.717352574096005,13.225326204169235,6.727712529310681,0,320,10,1,92
43.72623177955669,45.71418119859912,13.225326204169235,6.727712529310681,0,448,10,1,93
43.7258821317717,45.71418119859912,13.225326204169235,6.727712529310681,0,448,10,1,94
43.7258821317717,45.71560608553127,13.225326204169235,6.727712529310681,0,448,10,1,95
43.72671394501126,45.71709613290571,13.225326204169235,6.727712529310681,0,448,10,1,96
43.730690547944434,45.71709613290571,13.225326204169235,6.727712529310681,0,448,10,1,97
43.72671394501126,45.71709613290571,13.225326204169235,6.727712529310681,0,384,10,1,98
43.72623177955669,45.71560608553127,13.225326204169235,6.727712529310681,0,384,10,1,99
43.72623177955669,45.71418119859912,13.225326204169235,6.727712529310681,0,384,10,1,100
43.72623177955669,45.71418119859912,13.225326204169235,6.727712529310681,0,384,10,1,101
43.72623177955669,45.717352574096005,13.225326204169235,6.727712529310681,0,384,10,1,102
43.72623177955669,45.717352574096005,13.225326204169235,6.727712529310681,0,256,10,1,103
43.72623177955669,45.717352574096005,13.225326204169235,6.727712529310681,0,256,10,1,104
43.72623177955669,45.717352574096005,13.225326204169235,6.727712529310681,0,256,10,1,105
43.72926524305534,45.717352574096005,13.225326204169235,6.727712529310681,0,256,10,1,106
43.730690547944434,45.717352574096005,13.225326204169235,6.727712529310681,0,256,10,1,107
43.730690547944434,45.717352574096005,13.225326204169235,6.727712529310681,0,448,10,1,108
43.72926524305534,45.717352574096005,13.225326204169235,6.727712529310681,0,448,10,1,109
43.72926524305534,45.717352574096005,13.225326204169235,6.727712529310681,0,448,10,1,110
43.72671394501126,45.71709613290571,13.225326204169235,6.727712529310681,0,448,10,1,111
43.725288769730724,45.71560608553127,13.225326204169235,6.727712529310681,0,448,10,1,112
43.725288769730724,45.71560608553127,13.225326204169235,6.727712529310681,0,256,10,1,113
43.72671394501126,45.71709613290571,13.225326204169235,6.727712529310681,0,256,10,1,114
43.727656787839976,45.717352574096005,13.225326204169235,6.727712529310681,0,256,10,1,115
43.727656787839976,45.71791360160814,13.225326204169235,6.727712529310681,0,256,10,1,116
43.72671394501126,45.717352574096005,13.225326204169235,6.727712529310681,0,256,10,1,117
43.72671394501126,45.717352574096005,13.225326204169235,6.727712529310681,0,256,10,1,118
43.72671394501126,45.71709613290571,13.225326204169235,6.727712529310681,0,256,10,1,119
43.72926524305534,45.717352574096005,13.225326204169235,6.727712529310681,0,256,10,1,120
43.72706401410325,45.717352574096005,13.225326204169235,6.727712529310681,0,256,10,1,121
43.72706401410325,45.717352574096005,13.225326204169235,6.727712529310681,0,256,10,1,122
43.72623177955669,45.717352574096005,13.225326204169235,6.727712529310681,0,256,10,1,123
43.72623177955669,45.71709613290571,13.225326204169235,6.727712529310681,0,256,10,1,124
43.72623177955669,45.71709613290571,13.225326204169235,6.727712529310681,0,256,10,1,125
43.72623177955669,45.71560608553127,13.225326204169235,6.727712529310681,0,256,10,1,126
43.72623177955669,45.71418119859912,13.225326204169235,6.727712529310681,0,256,10,1,127
43.725288769730724,45.71560608553127,13.225326204169235,6.727712529310681,0,256,10,1,128
43.72623177955669,45.717352574096005,13.225326204169235,6.727712529310681,0,320,10,1,129
43.72623177955669,45.717352574096005,13.225326204169235,6.727712529310681,0,320,10,1,130
43.72623177955669,45.717352574096005,13.225326204169235,6.727712529310681,0,320,10,1,131
43.72623177955669,45.717352574096005,13.225326204169235,6.727712529310681,0,320,10,1,132
43.725288769730724,45.717352574096005,13.225326204169235,6.727712529310681,0,128,10,1,133
43.72623177955669,45.717352574096005,13.225326204169235,6.727712529310681,0,128,10,1,134
43.725288769730724,45.71709613290571,13.225326204169235,6.727712529310681,0,128,10,1,135
43.725288769730724,45.71709613290571,13.22572695900023,6.7316253617437205,0,128,10,2,137
43.725288769730724,45.71709613290571,63.48554393403144,15.165068849273919,0,128,10,2,138
43.725288769730724,45.71709613290571,63.486606782527346,15.16576928290917,0,192,10,2,139
43.725288769730724,45.71709613290571,63.4879562685123,15.166464006081496,0,192,10,2,140
43.725288769730724,45.71709613290571,63.4879562685123,15.167163760487282,0,192,10,2,141
43.725288769730724,45.71709613290571,63.4879562685123,15.167660027786523,0,320,10,2,142
43.725288769730724,45.71709613290571,63.48825695258545,15.167660027786523,0,320,10,2,143
43.725288769730724,45.71709613290571,63.48426232134773,15.167660027786523,0,320,10,2,144
43.725288769730724,45.71709613290571,63.483961879758574,15.167163760487282,0,320,10,2,145
43.725288769730724,45.71709613290571,63.483961879758574,15.163160554039512,0,320,10,2,146
43.725288769730724,45.71709613290571,63.483961879758574,15.163160554039512,0,320,10,2,147
43.725288769730724,45.71709613290571,63.48825695258545,15.165903932265989,0,384,10,2,148
43.725288769730724,45.71709613290571,63.48825695258545,15.165903932265989,0,384,10,2,149
43.725288769730724,45.71709613290571,63.48825695258545,15.163656690354445,0,384,10,2,150
43.725288769730724,45.71709613290571,63.48426232134773,15.163656690354445,0,384,10,2,151
43.725288769730724,45.71709613290571,63.48426232134773,15.163656690354445,0,384,10,2,152
43.725288769730724,45.71709613290571,63.48426232134773,15.163656690354445,0,384,10,2,153
43.725288769730724,45.71709613290571,63.48838359216295,15.164216681179754,0,384,10,2,154
43.725288769730724,45.71709613290571,63.48838359216295,15.164216681179754,0,384,10,2,155
43.725288769730724,45.71709613290571,63.486606782527346,15.164216681179754,0,384,10,2,156
43.725288769730724,45.71709613290571,63.486606782527346,15.164216681179754,0,384,10,2,157
43.725288769730724,45.71709613290571,63.486606782527346,15.164216681179754,0,384,10,2,158
43.725288769730724,45.71709613290571,63.486606782527346,15.164216681179754,0,448,10,2,159
43.725288769730724,45.71709613290571,63.48838359216295,15.164216681179754,0,448,10,2,160
43.725288769730724,45.71709613290571,63.488684344069966,15.162956239621645,0,448,10,2,161
43.725288769730724,45.71709613290571,63.488684344069966,15.162956239621645,0,448,10,2,162
43.725288769730724,45.71709613290571,63.488684344069966,15.162956239621645,0,448,10,2,163
43.725288769730724,45.71709613290571,63.488684344069966,15.162956239621645,0,448,10,2,164
43.725288769730724,45.71709613290571,63.4845627259671,15.162956239621645,0,448,10,2,165
43.725288769730724,45.71709613290571,63.4845627259671,15.162396168903093,0,448,10,2,166
43.725288769730724,45.71709613290571,63.48825695258545,15.162956239621645,0,448,10,2,167
43.725288769730724,45.71709613290571,63.488684344069966,15.162956239621645,0,448,10,2,168
43.725288769730724,45.71709613290571,63.488684344069966,15.163656690354445,0,320,10,2,169
43.725288769730724,45.71709613290571,63.488684344069966,15.163656690354445,0,320,10,2,170
43.725288769730724,45.71709613290571,63.486907727658576,15.162956239621645,0,320,10,2,171
43.725288769730724,45.71709613290571,63.48825695258545,15.162956239621645,0,320,10,2,172
43.725288769730724,45.71709613290571,63.48825695258545,15.161900131155694,0,320,10,2,173
43.725288769730724,45.71709613290571,63.48825695258545,15.161900131155694,0,256,10,2,174
43.725288769730724,45.71709613290571,63.48825695258545,15.161900131155694,0,256,10,2,175
43.725288769730724,45.71709613290571,63.48426232134773,15.163160554039512,0,256,10,2,176
43.725288769730724,45.71709613290571,63.48825695258545,15.163656690354445,0,256,10,2,177
43.725288769730724,45.71709613290571,63.48825695258545,15.163656690354445,0,256,10,2,178
43.725288769730724,45.71709613290571,63.48825695258545,15.163656690354445,0,256,10,2,179
43.725288769730724,45.71709613290571,63.48426232134773,15.163656690354445,0,256,10,2,180
43.725288769730724,45.71709613290571,63.48426232134773,15.162956239621645,0,256,10,2,181
43.725288769730724,45.71709613290571,63.48426232134773,15.162956239621645,0,256,10,2,182
43.725288769730724,45.71709613290571,63.48426232134773,15.162956239621645,0,64,10,2,183
43.725288769730724,45.71709613290571,63.483961879758574,15.161900131155694,0,64,10,2,184
43.725288769730724,45.71709613290571,63.483961879758574,15.161900131155694,0,64,10,2,185
43.725288769730724,45.71709613290571,63.48426232134773,15.161900131155694,0,64,10,2,186
43.725288769730724,45.71709613290571,63.486606782527346,15.16246005711162,0,320,10,2,187
43.725288769730724,45.71709613290571,63.4879562685123,15.162956239621645,0,320,10,2,188
43.725288769730724,45.71709613290571,63.48838359216295,15.163160554039512,0,320,10,2,189
43.725288769730724,45.71709613290571,63.48838359216295,15.163160554039512,0,320,10,2,190
43.725288769730724,45.71709613290571,63.4879562685123,15.163160554039512,0,320,10,2,191
43.725288769730724,45.71709613290571,63.48426232134773,15.163160554039512,0,320,10,2,192
43.725288769730724,45.71709613290571,63.4879562685123,15.163160554039512,0,320,10,2,193
43.725288769730724,45.71709613290571,63.48426232134773,15.163160554039512,0,320,10,2,194
43.725288769730724,45.71709613290571,63.48825695258545,15.163160554039512,0,320,10,2,195
43.725288769730724,45.71709613290571,63.48426232134773,15.163160554039512,0,320,10,2,196
43.725288769730724,45.71709613290571,63.48825695258545,15.162956239621645,0,320,10,2,197
43.725288769730724,45.71709613290571,63.486606782527346,15.163656690354445,0,320,10,2,198
43.725288769730724,45.71709613290571,63.486606782527346,15.163160554039512,0,448,10,2,199
43.725288769730724,45.71709613290571,63.48426232134773,15.163160554039512,0,448,10,2,200
43.725288769730724,45.71709613290571,63.48426232134773,15.163160554039512,0,448,10,2,201
43.725288769730724,45.71709613290571,63.48426232134773,15.162956239621645,0,448,10,2,202
43.725288769730724,45.71709613290571,63.48468948430698,15.163656690354445,0,448,10,2,203
43.725288769730724,45.71709613290571,63.48468948430698,15.164712921174258,0,320,10,2,204
43.725288769730724,45.71709613290571,63.48838359216295,15.164712921174258,0,320,10,2,205
43.725288769730724,45.71709613290571,63.48426232134773,15.164216681179754,0,320,10,2,206
43.725288769730724,45.71709613290571,63.483961879758574,15.163160554039512,0,320,10,2,207
43.725288769730724,45.71709613290571,63.483961879758574,15.163160554039512,0,320,10,2,208
43.725288769730724,45.71709613290571,63.48838359216295,15.164216681179754,0,256,10,2,209
43.725288769730724,45.71709613290571,63.48838359216295,15.164216681179754,0,256,10,2,210
43.725288769730724,45.71709613290571,63.483961879758574,15.163160554039512,0,256,10,2,211
43.725288769730724,45.71709613290571,63.482485828678676,15.161900131155694,0,256,10,2,212
43.725288769730724,45.71709613290571,63.483961879758574,15.161900131155694,0,256,10,2,213
43.725288769730724,45.71709613290571,63.48426232134773,15.161900131155694,0,320,10,2,214
43.725288769730724,45.71709613290571,63.48617969440894,15.163160554039512,0,320,10,2,215
43.725288769730724,45.71709613290571,63.48825695258545,15.163160554039512,0,320,10,2,216
43.725288769730724,45.71709613290571,63.48825695258545,15.162956239621645,0,320,10,2,217
43.725288769730724,45.71709613290571,63.48426232134773,15.162956239621645,0,320,10,2,218
43.725288769730724,45.71709613290571,63.48426232134773,15.161900131155694,0,384,10,2,219
43.725288769730724,45.71709613290571,63.48426232134773,15.163160554039512,0,384,10,2,220
43.725288769730724,45.71709613290571,63.483961879758574,15.161900131155694,0,384,10,2,221
43.725288769730724,45.71709613290571,63.483961879758574,15.163160554039512,0,384,10,2,222
43.725288769730724,45.71709613290571,63.48468948430698,15.162956239621645,0,384,10,2,223
43.725288769730724,45.71709613290571,63.48468948430698,15.162956239621645,0,256,10,2,224
43.725288769730724,45.71709613290571,63.48617969440894,15.162956239621645,0,256,10,2,225
43.725288769730724,45.71709613290571,63.48617969440894,15.162956239621645,0,256,10,2,226
43.725288769730724,45.71709613290571,63.488684344069966,15.163160554039512,0,256,10,2,227
43.725288769730724,45.71709613290571,63.488684344069966,15.164712921174258,0,0,10,2,228
43.725288769730724,45.71709613290571,63.488684344069966,15.164712921174258,0,0,10,2,229
43.725288769730724,45.71709613290571,63.486480571695054,15.161900131155694,0,0,10,2,230
43.725288769730724,45.71709613290571,63.486480571695054,15.161900131155694,0,0,10,2,231
43.725288769730724,45.71709613290571,63.48426232134773,15.161900131155694,0,0,10,2,232
43.725288769730724,45.71709613290571,63.48825695258545,15.161900131155694,0,0,10,2,233
43.725288769730724,45.71709613290571,63.48825695258545,15.161900131155694,0,0,10,2,234
43.725288769730724,45.71709613290571,63.48838359216295,15.162956239621645,0,192,10,2,235
43.72671394501126,45.71709613290571,63.48838359216295,15.162956239621645,0,192,10,1,237
43.72414169359236,45.71581608334384,63.48838359216295,15.162956239621645,0,448,10,1,238
43.72623177955669,45.71581608334384,63.48838359216295,15.162956239621645,0,448,10,1,239
43.72623177955669,45.71418119859912,63.48838359216295,15.162956239621645,0,384,10,1,240
43.72671394501126,45.71418119859912,63.48838359216295,15.162956239621645,0,384,10,1,241
43.727656787839976,45.71709613290571,63.48838359216295,15.162956239621645,0,384,10,1,242
43.727656787839976,45.71709613290571,63.48838359216295,15.162956239621645,0,384,10,1,243
43.72926524305534,45.71709613290571,63.48838359216295,15.162956239621645,0,128,10,1,244
43.727656787839976,45.71392456848261,63.48838359216295,15.162956239621645,0,0,10,1,245
43.727656787839976,45.717352574096005,63.48838359216295,15.162956239621645,0,0,10,1,246
43.725288769730724,45.717352574096005,63.48838359216295,15.162956239621645,0,256,10,1,247
43.725288769730724,45.717352574096005,63.48838359216295,15.162956239621645,0,256,10,1,248
43.725288769730724,45.71336361335326,63.48838359216295,15.162956239621645,0,384,10,1,249
43.725288769730724,45.71336361335326,63.48838359216295,15.162956239621645,0,384,10,1,250
43.725288769730724,45.71336361335326,63.48838359216295,15.162956239621645,0,384,10,1,251
43.725288769730724,45.71336361335326,63.48838359216295,15.162956239621645,0,384,10,1,252
43.72623177955669,45.71243483118689,63.48838359216295,15.162956239621645,0,384,10,1,253
43.72623177955669,45.71243483118689,63.48838359216295,15.162956239621645,0,384,10,1,254
43.72623177955669,45.71418119859912,63.48838359216295,15.162956239621645,0,384,10,1,255
43.72623177955669,45.71418119859912,63.48838359216295,15.162956239621645,0,384,10,1,0
43.72623177955669,45.71161697238364,63.48838359216295,15.162956239621645,0,384,10,1,1
43.725288769730724,45.71161697238364,63.48838359216295,15.162956239621645,0,384,10,1,2
43.725288769730724,45.71310688973753,63.48838359216295,15.162956239621645,0,320,10,1,3
43.72671394501126,45.71336361335326,63.48838359216295,15.162956239621645,0,320,10,1,4
43.72671394501126,45.71310688973753,63.48838359216295,15.162956239621645,0,320,10,1,5
43.72623177955669,45.71243483118689,63.48838359216295,15.162956239621645,0,320,10,1,6
43.7258821317717,45.71243483118689,63.48838359216295,15.162956239621645,0,320,10,1,7
43.7258821317717,45.71310688973753,63.48838359216295,15.162956239621645,0,320,10,1,8
43.72671394501126,45.71392456848261,63.48838359216295,15.162956239621645,0,320,10,1,9
43.72671394501126,45.71310688973753,63.48838359216295,15.162956239621645,0,320,10,1,10
43.723680460778496,45.71019251456734,63.48838359216295,15.162956239621645,0,320,10,1,11
43.7222555820768,45.71019251456734,63.48838359216295,15.162956239621645,0,320,10,1,12
43.723680460778496,45.71019251456734,63.48838359216295,15.162956239621645,0,320,10,1,13
43.7222555820768,45.71161697238364,63.48838359216295,15.162956239621645,0,320,10,1,14
43.725288769730724,45.71243483118689,63.48838359216295,15.162956239621645,0,320,10,1,15
43.7222555820768,45.71392456848261,63.48838359216295,15.162956239621645,0,320,10,1,16
43.72623177955669,45.71310688973753,63.48838359216295,15.162956239621645,0,320,10,1,17
43.72623177955669,45.71310688973753,63.48838359216295,15.162956239621645,0,448,10,1,18
43.72623177955669,45.71310688973753,63.48838359216295,15.162956239621645,0,448,10,1,19
43.72623177955669,45.71392456848261,63.48838359216295,15.162956239621645,0,448,10,1,20
43.72403070330205,45.71418119859912,63.48838359216295,15.162956239621645,0,448,10,1,21
43.725288769730724,45.71392456848261,63.48838359216295,15.162956239621645,0,448,10,1,22
43.725288769730724,45.71418119859912,63.48838359216295,15.162956239621645,0,448,10,1,23
43.725288769730724,45.71560608553127,63.48838359216295,15.162956239621645,0,256,10,1,24
43.725288769730724,45.71560608553127,63.48838359216295,15.162956239621645,0,256,10,1,25
43.725288769730724,45.71392456848261,63.48838359216295,15.162956239621645,0,256,10,1,26
43.72623177955669,45.71336361335326,63.48838359216295,15.162956239621645,0,256,10,1,27
43.72671394501126,45.71310688973753,63.48838359216295,15.162956239621645,0,256,10,1,28
43.72623177955669,45.71243483118689,63.48838359216295,15.162956239621645,0,384,10,1,29
43.72623177955669,45.71310688973753,63.48838359216295,15.162956239621645,0,384,10,1,30
43.72623177955669,45.71243483118689,63.48838359216295,15.162956239621645,0,384,10,1,31
43.72623177955669,45.71243483118689,63.48838359216295,15.162956239621645,0,384,10,1,32
43.7222555820768,45.71019251456734,63.48838359216295,15.162956239621645,0,128,10,1,33
43.7222555820768,45.71019251456734,63.48838359216295,15.162956239621645,0,0,10,1,34
43.72623177955669,45.71243483118689,63.48838359216295,15.162956239621645,0,0,10,1,35
43.72623177955669,45.71336361335326,63.48838359216295,15.162956239621645,0,0,10,1,36
43.725288769730724,45.71560608553127,63.48838359216295,15.162956239621645,0,256,10,1,37
43.725288769730724,45.717352574096005,63.48838359216295,15.162956239621645,0,256,10,1,38
43.725288769730724,45.717352574096005,63.48838359216295,15.162956239621645,0,256,10,1,39
43.725288769730724,45.717352574096005,63.48838359216295,15.162956239621645,0,256,10,1,40
43.72706401410325,45.71567099280779,63.48838359216295,15.162956239621645,0,256,10,1,41
43.72623177955669,45.71418119859912,63.48838359216295,15.162956239621645,0,256,10,1,42
43.72623177955669,45.71392456848261,63.48838359216295,15.162956239621645,0,448,10,1,43
43.72623177955669,45.71243483118689,63.48838359216295,15.162956239621645,0,448,10,1,44
43.725288769730724,45.71243483118689,63.48838359216295,15.162956239621645,0,448,10,1,45
43.72493900441112,45.71336361335326,63.48838359216295,15.162956239621645,0,448,10,1,46
43.725288769730724,45.71336361335326,63.48838359216295,15.162956239621645,0,448,10,1,47
43.72493900441112,45.71392456848261,63.48838359216295,15.162956239621645,0,384,10,1,48
43.725288769730724,45.71336361335326,63.48838359216295,15.162956239621645,0,384,10,1,49
43.725288769730724,45.71336361335326,63.48838359216295,15.162956239621645,0,384,10,1,50
43.725288769730724,45.71336361335326,63.48838359216295,15.162956239621645,0,384,10,1,51
43.72671394501126,45.71336361335326,63.48838359216295,15.162956239621645,0,384,10,1,52
43.72671394501126,45.71310688973753,63.48838359216295,15.162956239621645,0,320,10,1,53
43.72671394501126,45.71310688973753,63.48838359216295,15.162956239621645,0,320,10,1,54
43.725288769730724,45.71709613290571,63.48838359216295,15.162956239621645,0,320,10,1,55
43.72623177955669,45.71709613290571,63.48838359216295,15.162956239621645,0,320,10,1,56
43.72623177955669,45.71243483118689,63.48838359216295,15.162956239621645,0,320,10,1,57
43.72623177955669,45.71243483118689,63.48838359216295,15.162956239621645,0,320,10,1,58
43.72623177955669,45.71243483118689,63.48838359216295,15.162956239621645,0,448,10,1,59
43.7258821317717,45.71392456848261,63.48838359216295,15.162956239621645,0,448,10,1,60
43.7258821317717,45.71392456848261,63.48838359216295,15.162956239621645,0,448,10,1,61
43.725288769730724,45.71392456848261,63.48838359216295,15.162956239621645,0,448,10,1,62
43.727656787839976,45.71392456848261,63.48838359216295,15.162956239621645,0,448,10,1,63
43.727656787839976,45.71392456848261,63.48838359216295,15.162956239621645,0,384,10,1,64
43.727656787839976,45.71392456848261,63.48838359216295,15.162956239621645,0,384,10,1,65
43.727656787839976,45.71392456848261,63.48838359216295,15.162956239621645,0,384,10,1,66
43.727656787839976,45.71392456848261,63.48838359216295,15.162956239621645,0,384,10,1,67
43.72671394501126,45.71310688973753,63.48838359216295,15.162956239621645,0,384,10,1,68
43.725288769730724,45.71310688973753,63.48838359216295,15.162956239621645,0,448,10,1,69
43.72671394501126,45.71310688973753,63.48838359216295,15.162956239621645,0,448,10,1,70
43.72623177955669,45.71336361335326,63.48838359216295,15.162956239621645,0,448,10,1,71
43.72671394501126,45.71310688973753,63.48838359216295,15.162956239621645,0,448,10,1,72
43.72671394501126,45.71310688973753,63.48838359216295,15.162956239621645,0,448,10,1,73
43.72671394501126,45.71310688973753,63.48838359216295,15.162956239621645,0,320,10,1,74
43.72671394501126,45.71392456848261,63.48838359216295,15.162956239621645,0,320,10,1,75
43.725288769730724,45.71560608553127,63.48838359216295,15.162956239621645,0,320,10,1,76
43.725288769730724,45.71392456848261,63.48838359216295,15.162956239621645,0,320,10,1,77
43.725288769730724,45.71336361335326,63.48838359216295,15.162956239621645,0,64,10,1,78
43.725288769730724,45.71161697238364,63.48838359216295,15.162956239621645,0,64,10,1,79
43.725288769730724,45.71161697238364,63.48838359216295,15.164216681179754,0,64,10,2,81
43.725288769730724,45.71161697238364,62.40046458539219,68.28763504620724,0,64,10,2,82
43.725288769730724,45.71161697238364,62.395208691275656,68.28948783928867,0,64,10,2,83
43.725288769730724,45.71161697238364,62.40010304050554,68.28948783928867,0,64,10,2,84
43.725288769730724,45.71161697238364,62.395600152363386,68.28948783928867,0,64,10,2,85
43.725288769730724,45.71161697238364,62.40010304050554,68.28948783928867,0,64,10,2,86
43.725288769730724,45.71161697238364,62.395600152363386,68.28455996401215,0,320,10,2,87
43.725288769730724,45.71161697238364,62.39974153000511,68.28948783928867,0,320,10,2,88
43.725288769730724,45.71161697238364,62.397905939595915,68.28871893521452,0,320,10,2,89
43.725288769730724,45.71161697238364,62.39974153000511,68.28871893521452,0,320,10,2,90
43.725288769730724,45.71161697238364,62.39974153000511,68.28871893521452,0,320,10,2,91
43.725288769730724,45.71161697238364,62.400022347049294,68.28948783928867,0,320,10,2,92
43.725288769730724,45.71161697238364,62.39974153000511,68.2905145816554,0,256,10,2,93
43.725288769730724,45.71161697238364,62.40010304050554,68.292052947377,0,256,10,2,94
43.725288769730724,45.71161697238364,62.39974153000511,68.292052947377,0,256,10,2,95
43.725288769730724,45.71161697238364,62.39974153000511,68.2905145816554,0,256,10,2,96
43.725288769730724,45.71161697238364,62.39826719578187,68.28948783928867,0,256,10,2,97
43.725288769730724,45.71161697238364,62.39826719578187,68.28948783928867,0,256,10,2,98
43.725288769730724,45.71161697238364,62.395600152363386,68.28819811067349,0,448,10,2,99
43.725288769730724,45.71161697238364,62.39826719578187,68.28948783928867,0,448,10,2,100
43.725288769730724,45.71161697238364,62.395600152363386,68.28871893521452,0,448,10,2,101
43.725288769730724,45.71161697238364,62.39826719578187,68.28948783928867,0,448,10,2,102
43.725288769730724,45.71161697238364,62.395600152363386,68.28871893521452,0,448,10,2,103
43.725288769730724,45.71161697238364,62.40010304050554,68.28948783928867,0,256,10,2,104
43.725288769730724,45.71161697238364,62.39974153000511,68.28871893521452,0,256,10,2,105
43.725288769730724,45.71161697238364,62.39974153000511,68.28871893521452,0,256,10,2,106
43.725288769730724,45.71161697238364,62.39826719578187,68.28871893521452,0,256,10,2,107
43.725288769730724,45.71161697238364,62.397905939595915,68.28871893521452,0,256,10,2,108
43.725288769730724,45.71161697238364,62.39826719578187,68.28948783928867,0,256,10,2,109
43.725288769730724,45.71161697238364,62.400022347049294,68.29103514681745,0,256,10,2,110
43.725288769730724,45.71161697238364,62.40010304050554,68.29103514681745,0,256,10,2,111
43.725288769730724,45.71161697238364,62.40010304050554,68.2905145816554,0,256,10,2,112
43.725288769730724,45.71161697238364,62.39588070709944,68.2905145816554,0,256,10,2,113
43.725288769730724,45.71161697238364,62.39588070709944,68.29103514681745,0,256,10,2,114
43.725288769730724,45.71161697238364,62.39588070709944,68.29103514681745,0,256,10,2,115
43.725288769730724,45.71161697238364,62.40010304050554,68.2905145816554,0,256,10,2,116
43.725288769730724,45.71161697238364,62.40010304050554,68.28948783928867,0,256,10,2,117
43.725288769730724,45.71161697238364,62.40010304050554,68.28948783928867,0,256,10,2,118
43.725288769730724,45.71161697238364,62.39974153000511,68.28896689327195,0,320,10,2,119
43.725288769730724,45.71161697238364,62.397986071675206,68.28871893521452,0,320,10,2,120
43.725288769730724,45.71161697238364,62.395600152363386,68.28871893521452,0,320,10,2,121
43.725288769730724,45.71161697238364,62.395600152363386,68.28871893521452,0,320,10,2,122
43.725288769730724,45.71161697238364,62.39588070709944,68.28871893521452,0,320,10,2,123
43.725288769730724,45.71161697238364,62.400022347049294,68.28948783928867,0,320,10,2,124
43.725288769730724,45.71161697238364,62.400022347049294,68.29103514681745,0,320,10,2,125
43.725288769730724,45.71161697238364,62.400022347049294,68.29103514681745,0,320,10,2,126
43.725288769730724,45.71161697238364,62.395600152363386,68.28635571981663,0,320,10,2,127
43.725288769730724,45.71161697238364,62.395600152363386,68.28635571981663,0,64,10,2,128
43.725288769730724,45.71161697238364,62.397905939595915,68.28635571981663,0,64,10,2,129
43.725288769730724,45.71161697238364,62.397905939595915,68.28871893521452,0,0,10,2,130
43.725288769730724,45.71161697238364,62.39826719578187,68.28769220721395,0,0,10,2,131
43.725288769730724,45.71161697238364,62.40010304050554,68.29000871832342,0,256,10,2,132
43.725288769730724,45.71161697238364,62.40010304050554,68.28948783928867,0,256,10,2,133
43.725288769730724,45.71161697238364,62.40010304050554,68.28948783928867,0,256,10,2,134
43.725288769730724,45.71161697238364,62.40010304050554,68.28948783928867,0,256,10,2,135
43.725288769730724,45.71161697238364,62.394125451429524,68.28948783928867,0,256,10,2,136
43.725288769730724,45.71161697238364,62.393764440117124,68.28871893521452,0,256,10,2,137
43.725288769730724,45.71161697238364,62.393764440117124,68.28871893521452,0,256,10,2,138
43.725288769730724,45.71161697238364,62.397905939595915,68.28871893521452,0,256,10,2,139
43.725288769730724,45.71161697238364,62.40010304050554,68.29128372468702,0,256,10,2,140
43.725288769730724,45.71161697238364,62.39826719578187,68.28948783928867,0,256,10,2,141
43.725288769730724,45.71161697238364,62.40010304050554,68.29128372468702,0,256,10,2,142
43.725288769730724,45.71161697238364,62.39974153000511,68.28948783928867,0,256,10,2,143
43.725288769730724,45.71161697238364,62.39974153000511,68.28871893521452,0,384,10,2,144
43.725288769730724,45.71161697238364,62.395319566615456,68.28455996401215,0,384,10,2,145
43.725288769730724,45.71161697238364,62.395319566615456,68.28455996401215,0,384,10,2,146
43.725288769730724,45.71161697238364,62.39974153000511,68.28871893521452,0,384,10,2,147
43.725288769730724,45.71161697238364,62.39974153000511,68.28871893521452,0,384,10,2,148
43.725288769730724,45.71161697238364,62.39974153000511,68.2905145816554,0,256,10,2,149
43.725288769730724,45.71161697238364,62.397905939595915,68.28455996401215,0,256,10,2,150
43.725288769730724,45.71161697238364,62.39762487893845,68.28819811067349,0,256,10,2,151
43.725288769730724,45.71161697238364,62.39762487893845,68.28819811067349,0,256,10,2,152
43.725288769730724,45.71161697238364,62.39762487893845,68.28819811067349,0,256,10,2,153
43.725288769730724,45.71161697238364,62.39974153000511,68.28871893521452,0,384,10,2,154
43.725288769730724,45.71161697238364,62.40010304050554,68.28948783928867,0,384,10,2,155
43.725288769730724,45.71161697238364,62.40010304050554,68.2936471106305,0,384,10,2,156
43.725288769730724,45.71161697238364,62.39826719578187,68.2936471106305,0,384,10,2,157
43.725288769730724,45.71161697238364,62.39826719578187,68.28948783928867,0,384,10,2,158
43.725288769730724,45.71161697238364,62.39826719578187,68.28948783928867,0,256,10,2,159
43.725288769730724,45.71161697238364,62.39826719578187,68.28948783928867,0,256,10,2,160
43.725288769730724,45.71161697238364,62.39826719578187,68.28948783928867,0,256,10,2,161
43.725288769730724,45.71161697238364,62.395319566615456,68.28871893521452,0,256,10,2,162
43.725288769730724,45.71161697238364,62.395319566615456,68.28871893521452,0,256,10,2,163
43.725288769730724,45.71161697238364,62.395600152363386,68.28455996401215,0,320,10,2,164
43.725288769730724,45.71161697238364,62.395600152363386,68.28635571981663,0,320,10,2,165
43.725288769730724,45.71161697238364,62.395600152363386,68.28635571981663,0,320,10,2,166
43.725288769730724,45.71161697238364,62.395600152363386,68.28871893521452,0,320,10,2,167
43.725288769730724,45.71161697238364,62.40010304050554,68.29128372468702,0,320,10,2,168
43.725288769730724,45.71161697238364,62.40010304050554,68.29128372468702,0,320,10,2,169
43.725288769730724,45.71161697238364,62.394125451429524,68.28948783928867,0,256,10,2,170
43.725288769730724,45.71161697238364,62.394125451429524,68.28948783928867,0,256,10,2,171
43.725288769730724,45.71161697238364,62.395600152363386,68.28948783928867,0,256,10,2,172
43.725288769730724,45.71161697238364,62.39826719578187,68.28948783928867,0,0,10,2,173
43.725288769730724,45.71161697238364,62.39826719578187,68.28948783928867,0,0,10,2,174
43.725288769730724,45.71161697238364,62.397905939595915,68.28871893521452,0,128,10,2,175
43.725288769730724,45.71161697238364,62.397905939595915,68.28871893521452,0,128,10,2,176
43.725288769730724,45.71161697238364,62.40010304050554,68.29128372468702,0,128,10,2,177
43.725288769730724,45.71161697238364,62.400383920985185,68.29128372468702,0,128,10,2,178
43.725288769730724,45.71161697238364,62.40010304050554,68.29128372468702,0,128,10,2,179
43.725288769730724,45.71336361335326,62.40010304050554,68.29128372468702,0,0,10,1,181
43.72832233180034,45.71478834143093,62.40010304050554,68.29128372468702,0,0,10,1,182
43.72832233180034,45.71478834143093,62.40010304050554,68.29128372468702,0,256,10,1,183
43.72706401410325,45.71336361335326,62.40010304050554,68.29128372468702,0,256,10,1,184
43.7258821317717,45.71336361335326,62.40010304050554,68.29128372468702,0,320,10,1,185
43.7258821317717,45.71336361335326,62.40010304050554,68.29128372468702,0,320,10,1,186
43.72623177955669,45.71392456848261,62.40010304050554,68.29128372468702,0,320,10,1,187
43.72623177955669,45.71269128151741,62.40010304050554,68.29128372468702,0,320,10,1,188
43.727656787839976,45.71392456848261,62.40010304050554,68.29128372468702,0,192,10,1,189
43.72480665374366,45.71269128151741,62.40010304050554,68.29128372468702,0,192,10,1,190
43.727656787839976,45.71161697238364,62.40010304050554,68.29128372468702,0,192,10,1,191
43.727656787839976,45.71161697238364,62.40010304050554,68.29128372468702,0,448,10,1,192
43.727656787839976,45.71243483118689,62.40010304050554,68.29128372468702,0,448,10,1,193
43.727656787839976,45.71392456848261,62.40010304050554,68.29128372468702,0,448,10,1,194
43.72671394501126,45.71310688973753,62.40010304050554,68.29128372468702,0,448,10,1,195
43.72671394501126,45.71336361335326,62.40010304050554,68.29128372468702,0,448,10,1,196
43.725288769730724,45.71310688973753,62.40010304050554,68.29128372468702,0,448,10,1,197
43.725288769730724,45.71336361335326,62.40010304050554,68.29128372468702,0,448,10,1,198
43.72623177955669,45.71392456848261,62.40010304050554,68.29128372468702,0,320,10,1,199
43.72623177955669,45.71392456848261,62.40010304050554,68.29128372468702,0,320,10,1,200
43.7222555820768,45.71243483118689,62.40010304050554,68.29128372468702,0,320,10,1,201
43.7222555820768,45.71243483118689,62.40010304050554,68.29128372468702,0,320,10,1,202
43.72623177955669,45.71392456848261,62.40010304050554,68.29128372468702,0,320,10,1,203
43.727656787839976,45.71418119859912,62.40010304050554,68.29128372468702,0,320,10,1,204
43.727656787839976,45.71418119859912,62.40010304050554,68.29128372468702,0,320,10,1,205
43.72623177955669,45.71418119859912,62.40010304050554,68.29128372468702,0,320,10,1,206
43.72623177955669,45.71418119859912,62.40010304050554,68.29128372468702,0,320,10,1,207
43.72623177955669,45.71418119859912,62.40010304050554,68.29128372468702,0,320,10,1,208
43.72623177955669,45.71392456848261,62.40010304050554,68.29128372468702,0,320,10,1,209
43.72623177955669,45.71269128151741,62.40010304050554,68.29128372468702,0,320,10,1,210
43.72623177955669,45.71269128151741,62.40010304050554,68.29128372468702,0,320,10,1,211
43.72706401410325,45.71392456848261,62.40010304050554,68.29128372468702,0,320,10,1,212
43.72706401410325,45.71392456848261,62.40010304050554,68.29128372468702,0,320,10,1,213
43.72623177955669,45.71243483118689,62.40010304050554,68.29128372468702,0,448,10,1,214
43.72623177955669,45.71243483118689,62.40010304050554,68.29128372468702,0,448,10,1,215
43.72623177955669,45.71392456848261,62.40010304050554,68.29128372468702,0,448,10,1,216
43.72623177955669,45.71418119859912,62.40010304050554,68.29128372468702,0,448,10,1,217
43.72623177955669,45.71418119859912,62.40010304050554,68.29128372468702,0,448,10,1,218
43.72623177955669,45.71418119859912,62.40010304050554,68.29128372468702,0,448,10,1,219
43.727656787839976,45.71392456848261,62.40010304050554,68.29128372468702,0,384,10,1,220
43.7258821317717,45.71392456848261,62.40010304050554,68.29128372468702,0,384,10,1,221
43.725288769730724,45.71418119859912,62.40010304050554,68.29128372468702,0,384,10,1,222
43.725288769730724,45.71418119859912,62.40010304050554,68.29128372468702,0,384,10,1,223
43.72623177955669,45.71392456848261,62.40010304050554,68.29128372468702,0,384,10,1,224
43.72623177955669,45.71392456848261,62.40010304050554,68.29128372468702,0,384,10,1,225
43.72623177955669,45.71418119859912,62.40010304050554,68.29128372468702,0,384,10,1,226
43.72623177955669,45.71709613290571,62.40010304050554,68.29128372468702,0,384,10,1,227
43.72623177955669,45.71418119859912,62.40010304050554,68.29128372468702,0,384,10,1,228
43.72671394501126,45.71709613290571,62.40010304050554,68.29128372468702,0,384,10,1,229
43.72623177955669,45.71418119859912,62.40010304050554,68.29128372468702,0,320,10,1,230
43.72623177955669,45.71560608553127,62.40010304050554,68.29128372468702,0,320,10,1,231
43.72623177955669,45.71269128151741,62.40010304050554,68.29128372468702,0,320,10,1,232
43.7258821317717,45.71392456848261,62.40010304050554,68.29128372468702,0,320,10,1,233
43.7258821317717,45.71269128151741,62.40010304050554,68.29128372468702,0,128,10,1,234
43.7258821317717,45.71392456848261,62.40010304050554,68.29128372468702,0,128,10,1,235
43.72623177955669,45.71392456848261,62.40010304050554,68.29128372468702,0,128,10,1,236
43.72671394501126,45.71418119859912,62.40010304050554,68.29128372468702,0,128,10,1,237
43.72671394501126,45.71418119859912,62.40010304050554,68.29128372468702,0,256,10,1,238
43.72623177955669,45.71418119859912,62.40010304050554,68.29128372468702,0,256,10,1,239
43.72623177955669,45.71418119859912,62.40010304050554,68.29128372468702,0,256,10,1,240
43.72706401410325,45.71392456848261,62.40010304050554,68.29128372468702,0,256,10,1,241
43.72706401410325,45.71392456848261,62.40010304050554,68.29128372468702,0,256,10,1,242
43.727656787839976,45.71392456848261,62.40010304050554,68.29128372468702,0,256,10,1,243
43.725288769730724,45.71161697238364,62.40010304050554,68.29128372468702,0,384,10,1,244
43.72493900441112,45.71392456848261,62.40010304050554,68.29128372468702,0,384,10,1,245
43.7222555820768,45.71418119859912,62.40010304050554,68.29128372468702,0,384,10,1,246
43.72493900441112,45.71418119859912,62.40010304050554,68.29128372468702,0,384,10,1,247
43.725288769730724,45.71243483118689,62.40010304050554,68.29128372468702,0,384,10,1,248
43.72623177955669,45.71243483118689,62.40010304050554,68.29128372468702,0,320,10,1,249
43.72623177955669,45.71418119859912,62.40010304050554,68.29128372468702,0,320,10,1,250
43.72623177955669,45.71418119859912,62.40010304050554,68.29128372468702,0,320,10,1,251
43.723680460778496,45.71392456848261,62.40010304050554,68.29128372468702,0,320,10,1,252
43.723680460778496,45.71392456848261,62.40010304050554,68.29128372468702,0,320,10,1,253
43.7258821317717,45.71392456848261,62.40010304050554,68.29128372468702,0,448,10,1,254
43.72623177955669,45.71392456848261,62.40010304050554,68.29128372468702,0,448,10,1,255
43.72623177955669,45.71392456848261,62.40010304050554,68.29128372468702,0,448,10,1,0
43.72623177955669,45.71418119859912,62.40010304050554,68.29128372468702,0,448,10,1,1
43.72623177955669,45.71392456848261,62.40010304050554,68.29128372468702,0,448,10,1,2
43.72623177955669,45.71243483118689,62.40010304050554,68.29128372468702,0,448,10,1,3
43.727656787839976,45.71243483118689,62.40010304050554,68.29128372468702,0,320,10,1,4
43.72623177955669,45.71243483118689,62.40010304050554,68.29128372468702,0,320,10,1,5
43.72623177955669,45.71336361335326,62.40010304050554,68.29128372468702,0,320,10,1,6
43.7258821317717,45.71336361335326,62.40010304050554,68.29128372468702,0,320,10,1,7
43.7258821317717,45.71392456848261,62.40010304050554,68.29128372468702,0,320,10,1,8
43.72623177955669,45.71392456848261,62.40010304050554,68.29128372468702,0,448,10,1,9
43.72623177955669,45.71243483118689,62.40010304050554,68.29128372468702,0,448,10,1,10
43.72623177955669,45.71243483118689,62.40010304050554,68.29128372468702,0,448,10,1,11
43.72563866343171,45.71187351620192,62.40010304050554,68.29128372468702,0,448,10,1,12
43.72563866343171,45.71187351620192,62.40010304050554,68.29128372468702,0,448,10,1,13
43.725288769730724,45.71392456848261,62.40010304050554,68.29128372468702,0,320,10,1,14
43.72623177955669,45.71392456848261,62.40010304050554,68.29128372468702,0,320,10,1,15
43.72623177955669,45.71243483118689,62.40010304050554,68.29128372468702,0,320,10,1,16
43.72623177955669,45.71243483118689,62.40010304050554,68.29128372468702,0,320,10,1,17
43.72623177955669,45.71243483118689,62.40010304050554,68.29128372468702,0,320,10,1,18
43.7258821317717,45.71243483118689,62.40010304050554,68.29128372468702,0,448,10,1,19
43.7258821317717,45.71392456848261,62.40010304050554,68.29128372468702,0,448,10,1,20
43.72671394501126,45.71392456848261,62.40010304050554,68.29128372468702,0,448,10,1,21
43.72800673936978,45.71418119859912,62.40010304050554,68.29128372468702,0,448,10,1,22
43.730690547944434,45.71709613290571,62.40010304050554,68.29128372468702,39,192,10,1,23
43.730690547944434,45.71709613290571,62.395600152363386,68.28686615625995,882,64,10,2,25
43.730690547944434,45.71709613290571,62.395600152363386,68.28686615625995,1528,64,10,2,26
43.730690547944434,45.71709613290571,62.394847577007404,68.28948783928867,2221,64,10,2,27
43.730690547944434,45.71709613290571,62.39826719578187,68.28948783928867,2937,64,10,2,28
43.730690547944434,45.71709613290571,62.395600152363386,68.28948783928867,3646,0,10,2,29
43.730690547944434,45.71709613290571,62.395600152363386,68.28948783928867,3998,0,10,2,30
43.730690547944434,45.71709613290571,62.395600152363386,68.28871893521452,3999,0,10,2,31
43.730690547944434,45.71709613290571,62.395600152363386,68.28871893521452,3999,256,10,2,32
43.730690547944434,45.71709613290571,62.40010304050554,68.28948783928867,3999,256,10,2,33
43.730690547944434,45.71709613290571,62.40010304050554,68.28948783928867,3999,256,10,2,34
43.730690547944434,45.71709613290571,62.40240899413925,68.28948783928867,3999,256,10,2,35
43.730690547944434,45.71709613290571,62.40010304050554,68.28948783928867,3999,256,10,2,36
43.730690547944434,45.71709613290571,62.40010304050554,68.28948783928867,3999,256,10,2,37
43.730690547944434,45.71709613290571,62.40010304050554,68.28948783928867,3999,384,10,2,38
43.730690547944434,45.71709613290571,62.40010304050554,68.28948783928867,3999,384,10,2,39
43.730690547944434,45.71709613290571,62.40010304050554,68.28948783928867,3999,384,10,2,40
43.730690547944434,45.71709613290571,62.39974153000511,68.28871893521452,3999,384,10,2,41
43.730690547944434,45.71709613290571,62.39974153000511,68.28871893521452,3999,384,10,2,42
43.730690547944434,45.71709613290571,62.39974153000511,68.28948783928867,3999,384,10,2,43
43.730690547944434,45.71709613290571,62.39974153000511,68.28948783928867,3999,320,10,2,44
43.730690547944434,45.71709613290571,62.39974153000511,68.28871893521452,3999,320,10,2,45
43.730690547944434,45.71709613290571,62.39974153000511,68.28871893521452,3999,320,10,2,46
43.730690547944434,45.71709613290571,62.397905939595915,68.28871893521452,3999,320,10,2,47
43.730690547944434,45.71709613290571,62.39974153000511,68.28871893521452,3999,320,10,2,48
43.730690547944434,45.71709613290571,62.40010304050554,68.28948783928867,3999,384,10,2,49
43.730690547944434,45.71709613290571,62.40010304050554,68.28948783928867,3999,384,10,2,50
43.730690547944434,45.71709613290571,62.39974153000511,68.28871893521452,3999,384,10,2,51
43.730690547944434,45.71709613290571,62.39974153000511,68.28871893521452,3999,384,10,2,52
43.730690547944434,45.71709613290571,62.39974153000511,68.28871893521452,3999,384,10,2,53
43.730690547944434,45.71709613290571,62.40424471701706,68.28948783928867,3999,448,10,2,54
43.730690547944434,45.71709613290571,62.40424471701706,68.2936471106305,3999,448,10,2,55
43.730690547944434,45.71709613290571,62.40010304050554,68.28948783928867,3999,448,10,2,56
43.730690547944434,45.71709613290571,62.40010304050554,68.28948783928867,3999,448,10,2,57
43.730690547944434,45.71709613290571,62.40010304050554,68.28948783928867,3999,448,10,2,58
43.730690547944434,45.71709613290571,62.39826719578187,68.28948783928867,3999,448,10,2,59
43.730690547944434,45.71709613290571,62.39974153000511,68.28948783928867,3999,448,10,2,60
43.730690547944434,45.71709613290571,62.39974153000511,68.28948783928867,3999,448,10,2,61
43.730690547944434,45.71709613290571,62.40010304050554,68.2936471106305,3999,448,10,2,62
43.730690547944434,45.71709613290571,62.40010304050554,68.2936471106305,3999,448,10,2,63
43.730690547944434,45.71709613290571,62.40010304050554,68.29128372468702,3999,320,10,2,64
43.730690547944434,45.71709613290571,62.40010304050554,68.29128372468702,3999,320,10,2,65
43.730690547944434,45.71709613290571,62.40010304050554,68.29128372468702,3999,320,10,2,66
43.730690547944434,45.71709613290571,62.40010304050554,68.2936471106305,3999,320,10,2,67
43.730690547944434,45.71709613290571,62.40010304050554,68.29128372468702,3999,320,10,2,68
43.730690547944434,45.71709613290571,62.39826719578187,68.29128372468702,3999,384,10,2,69
43.730690547944434,45.71709613290571,62.40010304050554,68.28948783928867,3999,384,10,2,70
43.730690547944434,45.71709613290571,62.40010304050554,68.28948783928867,3999,384,10,2,71
43.730690547944434,45.71709613290571,62.40010304050554,68.28948783928867,3999,384,10,2,72
43.730690547944434,45.71709613290571,62.40010304050554,68.28948783928867,3999,128,10,2,73
43.730690547944434,45.71709613290571,62.39974153000511,68.28871893521452,3999,128,10,2,74
43.730690547944434,45.71709613290571,62.39974153000511,68.28871893521452,3999,192,10,2,75
43.730690547944434,45.71709613290571,62.40010304050554,68.28948783928867,3999,192,10,2,76
43.730690547944434,45.71709613290571,62.40424471701706,68.2936471106305,3999,320,10,2,77
43.730690547944434,45.71709613290571,62.40424471701706,68.29441634727134,3999,320,10,2,78
43.730690547944434,45.71709613290571,62.40424471701706,68.2936471106305,3999,320,10,2,79
43.730690547944434,45.71709613290571,62.40424471701706,68.2936471106305,3999,320,10,2,80
43.730690547944434,45.71709613290571,62.40240899413925,68.2936471106305,3999,320,10,2,81
43.730690547944434,45.71709613290571,62.40010304050554,68.28948783928867,3999,320,10,2,82
43.730690547944434,45.71709613290571,62.40010304050554,68.29441634727134,3999,320,10,2,83
43.730690547944434,45.71709613290571,62.40010304050554,68.2905145816554,3999,384,10,2,84
43.730690547944434,45.71709613290571,62.395600152363386,68.2905145816554,3999,384,10,2,85
43.730690547944434,45.71709613290571,62.395600152363386,68.2905145816554,3999,384,10,2,86
43.730690547944434,45.71709613290571,62.40010304050554,68.28948783928867,3999,384,10,2,87
43.730690547944434,45.71709613290571,62.40010304050554,68.28948783928867,3999,384,10,2,88
43.730690547944434,45.71709613290571,62.39826719578187,68.28948783928867,3999,320,10,2,89
43.730690547944434,45.71709613290571,62.39826719578187,68.28948783928867,3999,320,10,2,90
43.730690547944434,45.71709613290571,62.39826719578187,68.28948783928867,3999,320,10,2,91
43.730690547944434,45.71709613290571,62.40010304050554,68.28948783928867,3999,320,10,2,92
43.730690547944434,45.71709613290571,62.39826719578187,68.28948783928867,3999,320,10,2,93
43.730690547944434,45.71709613290571,62.40010304050554,68.28948783928867,3999,384,10,2,94
43.730690547944434,45.71709613290571,62.397986071675206,68.28896689327195,3999,384,10,2,95
43.730690547944434,45.71709613290571,62.40010304050554,68.28948783928867,3999,384,10,2,96
43.730690547944434,45.71709613290571,62.40010304050554,68.2936471106305,3999,384,10,2,97
43.730690547944434,45.71709613290571,62.40010304050554,68.2936471106305,3999,384,10,2,98
43.730690547944434,45.71709613290571,62.40240899413925,68.2936471106305,3999,256,10,2,99
43.730690547944434,45.71709613290571,62.399460681934215,68.28896689327195,3999,256,10,2,100
43.730690547944434,45.71709613290571,62.397986071675206,68.2905145816554,3999,256,10,2,101
43.730690547944434,45.71709613290571,62.397986071675206,68.2905145816554,3999,256,10,2,102
43.730690547944434,45.71709613290571,62.39826719578187,68.2905145816554,3999,256,10,2,103
43.730690547944434,45.71709613290571,62.39826719578187,68.2936471106305,3999,384,10,2,104
43.730690547944434,45.71709613290571,62.39826719578187,68.28948783928867,3999,384,10,2,105
43.730690547944434,45.71709613290571,62.39826719578187,68.28948783928867,3999,384,10,2,106
43.730690547944434,45.71709613290571,62.39826719578187,68.28948783928867,3999,384,10,2,107
43.730690547944434,45.71709613290571,62.39974153000511,68.28871893521452,3999,384,10,2,108
43.730690547944434,45.71709613290571,62.39974153000511,68.28948783928867,3999,256,10,2,109
43.730690547944434,45.71709613290571,62.40010304050554,68.28948783928867,3999,256,10,2,110
43.730690547944434,45.71709613290571,62.40010304050554,68.2936471106305,3999,256,10,2,111
43.730690547944434,45.71709613290571,62.40010304050554,68.2936471106305,3999,256,10,2,112
43.730690547944434,45.71709613290571,62.40010304050554,68.2936471106305,3999,256,10,2,113
43.730690547944434,45.71709613290571,62.40010304050554,68.29544288665736,3999,256,10,2,114
43.730690547944434,45.71709613290571,62.40010304050554,68.29544288665736,3999,384,10,2,115
43.730690547944434,45.71709613290571,62.40010304050554,68.29128372468702,3999,384,10,2,116
43.730690547944434,45.71709613290571,62.40010304050554,68.29128372468702,3999,384,10,2,117
43.730690547944434,45.71709613290571,62.40010304050554,68.29128372468702,3999,384,10,2,118
43.730690547944434,45.71709613290571,62.40010304050554,68.29025682297667,3999,128,10,2,119
43.730690547944434,45.71709613290571,62.39974153000511,68.29025682297667,3999,0,10,2,120
43.730690547944434,45.71709613290571,62.39974153000511,68.2905145816554,3999,0,10,2,121
43.730690547944434,45.71709613290571,62.40010304050554,68.29128372468702,3999,0,10,2,122
43.730690547944434,45.71709613290571,62.40010304050554,68.29128372468702,3999,0,10,2,123
43.730690547944434,45.71709613290571,62.40010304050554,68.29128372468702,3999,0,10,1,125
43.730690547944434,45.71709613290571,62.40010304050554,68.29128372468702,3999,0,10,1,126
43.73104032600449,45.717352574096005,62.40010304050554,68.29128372468702,3999,128,10,1,127
43.727656787839976,45.71392456848261,62.40010304050554,68.29128372468702,3999,384,10,1,128
43.730690547944434,45.71709613290571,62.40010304050554,68.29128372468702,3999,384,10,1,129
43.727656787839976,45.71418119859912,62.40010304050554,68.29128372468702,3999,448,10,1,130
43.727656787839976,45.71418119859912,62.40010304050554,68.29128372468702,3999,448,10,1,131
43.72623177955669,45.71392456848261,62.40010304050554,68.29128372468702,3999,448,10,1,132
43.72671394501126,45.71310688973753,62.40010304050554,68.29128372468702,3999,448,10,1,133
43.72671394501126,45.71310688973753,62.40010304050554,68.29128372468702,3999,448,10,1,134
43.72671394501126,45.71310688973753,62.40010304050554,68.29128372468702,3999,320,10,1,135
43.730690547944434,45.71709613290571,62.40010304050554,68.29128372468702,3999,320,10,1,136
43.72671394501126,45.71709613290571,62.40010304050554,68.29128372468702,3999,320,10,1,137
43.730690547944434,45.71709613290571,62.40010304050554,68.29128372468702,3999,320,10,1,138
43.72671394501126,45.71709613290571,62.40010304050554,68.29128372468702,3999,128,10,1,139
43.72671394501126,45.71709613290571,62.40010304050554,68.29128372468702,3999,128,10,1,140
43.72623177955669,45.71310688973753,62.40010304050554,68.29128372468702,3999,128,10,1,141
43.72671394501126,45.71310688973753,62.40010304050554,68.29128372468702,3999,128,10,1,142
43.72926524305534,45.71709613290571,62.40010304050554,68.29128372468702,3999,128,10,1,143
43.72926524305534,45.71709613290571,62.40010304050554,68.29128372468702,3999,128,10,1,144
43.72623177955669,45.717352574096005,62.40010304050554,68.29128372468702,3999,0,10,1,145
43.72623177955669,45.71392456848261,62.40010304050554,68.29128372468702,3999,0,10,1,146
43.727656787839976,45.71560608553127,62.40010304050554,68.29128372468702,3999,0,10,1,147
43.727656787839976,45.71392456848261,62.40010304050554,68.29128372468702,3999,256,10,1,148
43.727656787839976,45.71418119859912,62.40010304050554,68.29128372468702,3999,320,10,1,149
43.727656787839976,45.71418119859912,62.40010304050554,68.29128372468702,3999,320,10,1,150
43.72926524305534,45.71560608553127,62.40010304050554,68.29128372468702,3999,320,10,1,151
43.72926524305534,45.71560608553127,62.40010304050554,68.29128372468702,3999,320,10,1,152
43.72623177955669,45.71418119859912,62.40010304050554,68.29128372468702,3999,320,10,1,153
43.72623177955669,45.71418119859912,62.40010304050554,68.29128372468702,3999,256,10,1,154
43.72623177955669,45.71418119859912,62.40010304050554,68.29128372468702,3999,256,10,1,155
43.72926524305534,45.71336361335326,62.40010304050554,68.29128372468702,3999,256,10,1,156
43.72926524305534,45.71336361335326,62.40010304050554,68.29128372468702,3999,256,10,1,157
43.72671394501126,45.71336361335326,62.40010304050554,68.29128372468702,3999,256,10,1,158
43.72671394501126,45.717352574096005,62.40010304050554,68.29128372468702,3999,384,10,1,159
43.72926524305534,45.71560608553127,62.40010304050554,68.29128372468702,3999,384,10,1,160
43.72926524305534,45.71560608553127,62.40010304050554,68.29128372468702,3999,384,10,1,161
43.72671394501126,45.71560608553127,62.40010304050554,68.29128372468702,3999,384,10,1,162
43.72623177955669,45.71709613290571,62.40010304050554,68.29128372468702,3999,384,10,1,163
43.72671394501126,45.71709613290571,62.40010304050554,68.29128372468702,3999,256,10,1,164
43.725288769730724,45.717352574096005,62.40010304050554,68.29128372468702,3999,256,10,1,165
43.72671394501126,45.717352574096005,62.40010304050554,68.29128372468702,3999,256,10,1,166
43.72926524305534,45.717352574096005,62.40010304050554,68.29128372468702,3999,256,10,1,167
43.72926524305534,45.717352574096005,62.40010304050554,68.29128372468702,3999,256,10,1,168
43.72926524305534,45.71560608553127,62.40010304050554,68.29128372468702,3999,256,10,1,169
43.72623177955669,45.71418119859912,62.40010304050554,68.29128372468702,3999,384,10,1,170
43.72623177955669,45.71418119859912,62.40010304050554,68.29128372468702,3999,384,10,1,171
43.72623177955669,45.71418119859912,62.40010304050554,68.29128372468702,3999,384,10,1,172
43.72623177955669,45.71418119859912,62.40010304050554,68.29128372468702,3999,384,10,1,173
43.72623177955669,45.71418119859912,62.40010304050554,68.29128372468702,3999,384,10,1,174
43.72623177955669,45.71418119859912,62.40010304050554,68.29128372468702,3999,384,10,1,175
43.72623177955669,45.71418119859912,62.40010304050554,68.29128372468702,3999,384,10,1,176
43.72623177955669,45.71392456848261,62.40010304050554,68.29128372468702,3999,384,10,1,177
43.725288769730724,45.71392456848261,62.40010304050554,68.29128372468702,3999,384,10,1,178
43.725288769730724,45.71560608553127,62.40010304050554,68.29128372468702,3999,384,10,1,179
43.72671394501126,45.71560608553127,62.40010304050554,68.29128372468702,3999,384,10,1,180
43.72671394501126,45.71418119859912,62.40010304050554,68.29128372468702,3999,384,10,1,181
43.72623177955669,45.71310688973753,62.40010304050554,68.29128372468702,3999,384,10,1,182
43.72623177955669,45.71418119859912,62.40010304050554,68.29128372468702,3999,384,10,1,183
43.725288769730724,45.71418119859912,62.40010304050554,68.29128372468702,3999,384,10,1,184
43.72623177955669,45.717352574096005,62.40010304050554,68.29128372468702,3999,448,10,1,185
43.72926524305534,45.717352574096005,62.40010304050554,68.29128372468702,3999,448,10,1,186
43.72926524305534,45.717352574096005,62.40010304050554,68.29128372468702,3999,448,10,1,187
43.72926524305534,45.71560608553127,62.40010304050554,68.29128372468702,3999,448,10,1,188
43.72926524305534,45.71560608553127,62.40010304050554,68.29128372468702,3999,192,10,1,189
43.72926524305534,45.71560608553127,62.40010304050554,68.29128372468702,3999,192,10,1,190
43.72926524305534,45.71560608553127,62.40010304050554,68.29128372468702,3999,192,10,1,191
43.72623177955669,45.71336361335326,62.40010304050554,68.29128372468702,3999,192,10,1,192
43.72623177955669,45.71243483118689,62.40010304050554,68.29128372468702,3999,448,10,1,193
43.72623177955669,45.71243483118689,62.40010304050554,68.29128372468702,3999,448,10,1,194
43.727656787839976,45.71392456848261,62.40010304050554,68.29128372468702,3999,448,10,1,195
43.727656787839976,45.71392456848261,62.40010304050554,68.29128372468702,3999,448,10,1,196
43.72671394501126,45.71392456848261,62.40010304050554,68.29128372468702,3999,448,10,1,197
43.72623177955669,45.71418119859912,62.40010304050554,68.29128372468702,3999,448,10,1,198
43.72623177955669,45.71418119859912,62.40010304050554,68.29128372468702,3999,384,10,1,199
43.72623177955669,45.71336361335326,62.40010304050554,68.29128372468702,3999,384,10,1,200
43.72671394501126,45.71310688973753,62.40010304050554,68.29128372468702,3999,384,10,1,201
43.72671394501126,45.71310688973753,62.40010304050554,68.29128372468702,3999,384,10,1,202
43.72623177955669,45.71336361335326,62.40010304050554,68.29128372468702,3999,384,10,1,203
43.72623177955669,45.71418119859912,62.40010304050554,68.29128372468702,3999,384,10,1,204
43.725288769730724,45.71418119859912,62.40010304050554,68.29128372468702,3999,384,10,1,205
43.72623177955669,45.71418119859912,62.40010304050554,68.29128372468702,3999,384,10,1,206
43.72623177955669,45.71243483118689,62.40010304050554,68.29128372468702,3999,384,10,1,207
43.72623177955669,45.71243483118689,62.40010304050554,68.29128372468702,3999,384,10,1,208
43.72706401410325,45.70993560206302,62.40010304050554,68.29128372468702,3999,384,10,1,209
43.72706401410325,45.71243483118689,62.40010304050554,68.29128372468702,3999,448,10,1,210
43.72623177955669,45.70993560206302,62.40010304050554,68.29128372468702,3999,448,10,1,211
43.72623177955669,45.71243483118689,62.40010304050554,68.29128372468702,3999,448,10,1,212
43.72623177955669,45.71019251456734,62.40010304050554,68.29128372468702,3999,448,10,1,213
43.72623177955669,45.71019251456734,62.40010304050554,68.29128372468702,3999,448,10,1,214
43.727656787839976,45.71019251456734,62.40010304050554,68.29128372468702,3999,320,10,1,215
43.727656787839976,45.71243483118689,62.40010304050554,68.29128372468702,3999,320,10,1,216
43.72623177955669,45.71243483118689,62.40010304050554,68.29128372468702,3999,320,10,1,217
43.72623177955669,45.71243483118689,62.40010304050554,68.29128372468702,3999,320,10,1,218
43.72623177955669,45.71243483118689,62.40010304050554,68.29128372468702,3999,320,10,1,219
43.72623177955669,45.71243483118689,62.40010304050554,68.29128372468702,3999,384,10,1,220
43.72623177955669,45.71243483118689,62.40010304050554,68.29128372468702,3999,384,10,1,221
43.727656787839976,45.71161697238364,62.40010304050554,68.29128372468702,3999,384,10,1,222
43.727656787839976,45.71161697238364,62.40010304050554,68.29128372468702,3999,384,10,1,223
43.727656787839976,45.71161697238364,62.40010304050554,68.28948783928867,3999,384,10,2,225
43.727656787839976,45.71161697238364,63.479470760013704,15.162956239621645,3999,256,10,2,226
43.727656787839976,45.71161697238364,63.48426232134773,15.161900131155694,3999,256,10,2,227
43.727656787839976,45.71161697238364,63.48468948430698,15.161900131155694,3999,256,10,2,228
43.727656787839976,45.71161697238364,63.48426232134773,15.161900131155694,3999,256,10,2,229
43.727656787839976,45.71161697238364,63.48426232134773,15.161900131155694,3999,256,10,2,230
43.727656787839976,45.71161697238364,63.48426232134773,15.161900131155694,3999,256,10,2,231
43.727656787839976,45.71161697238364,63.48426232134773,15.161900131155694,3999,256,10,2,232
43.727656787839976,45.71161697238364,63.48426232134773,15.161900131155694,3999,256,10,2,233
43.727656787839976,45.71161697238364,63.48426232134773,15.161900131155694,3999,256,10,2,234
43.727656787839976,45.71161697238364,63.48426232134773,15.161900131155694,3999,448,10,2,235
43.727656787839976,45.71161697238364,63.48426232134773,15.163160554039512,3999,448,10,2,236
43.727656787839976,45.71161697238364,63.48617969440894,15.163160554039512,3999,448,10,2,237
43.727656787839976,45.71161697238364,63.483961879758574,15.164847675827533,3999,448,10,2,238
43.727656787839976,45.71161697238364,63.48617969440894,15.164847675827533,3999,448,10,2,239
43.727656787839976,45.71161697238364,63.48617969440894,15.163160554039512,3999,320,10,2,240
43.727656787839976,45.71161697238364,63.48617969440894,15.163160554039512,3999,320,10,2,241
43.727656787839976,45.71161697238364,63.48617969440894,15.163160554039512,3999,320,10,2,242
43.727656787839976,45.71161697238364,63.482485828678676,15.163656690354445,3999,320,10,2,243
43.727656787839976,45.71161697238364,63.48218519387067,15.163160554039512,3999,320,10,2,244
43.727656787839976,45.71161697238364,63.482485828678676,15.163656690354445,3999,448,10,2,245
43.727656787839976,45.71161697238364,63.483961879758574,15.163160554039512,3999,448,10,2,246
43.727656787839976,45.71161697238364,63.488684344069966,15.164712921174258,3999,448,10,2,247
43.727656787839976,45.71161697238364,63.48426232134773,15.163160554039512,3999,448,10,2,248
43.727656787839976,45.71161697238364,63.48426232134773,15.161900131155694,3999,192,10,2,249
43.727656787839976,45.71161697238364,63.48426232134773,15.161900131155694,3999,192,10,2,250
43.727656787839976,45.71161697238364,63.486907727658576,15.161900131155694,3999,128,10,2,251
43.727656787839976,45.71161697238364,63.486907727658576,15.162956239621645,3999,128,10,2,252
43.727656787839976,45.71161697238364,63.48426232134773,15.163160554039512,3999,384,10,2,253
43.727656787839976,45.71161697238364,63.48426232134773,15.163656690354445,3999,384,10,2,254
43.727656787839976,45.71161697238364,63.48426232134773,15.163656690354445,3999,384,10,2,255
43.727656787839976,45.71161697238364,63.48426232134773,15.163656690354445,3999,384,10,2,0
43.727656787839976,45.71161697238364,63.48426232134773,15.163160554039512,3999,384,10,2,1
43.727656787839976,45.71161697238364,63.48426232134773,15.161900131155694,3999,384,10,2,2
43.727656787839976,45.71161697238364,63.48218519387067,15.163160554039512,3999,384,10,2,3
43.727656787839976,45.71161697238364,63.48426232134773,15.163160554039512,3999,320,10,2,4
43.727656787839976,45.71161697238364,63.48426232134773,15.163656690354445,3999,320,10,2,5
43.727656787839976,45.71161697238364,63.48426232134773,15.163656690354445,3999,320,10,2,6
43.727656787839976,45.71161697238364,63.486606782527346,15.162956239621645,3999,320,10,2,7
43.727656787839976,45.71161697238364,63.486606782527346,15.162956239621645,3999,320,10,2,8
43.727656787839976,45.71161697238364,63.48617969440894,15.163160554039512,3999,256,10,2,9
