BIOZ1,BIOZ2,BIOZ3,BIOZ4,ECG,PPG,EXC_FREQ_KHZ,MUX_CONFIG,PACKET_NUMBER
43.72506761977566,45.714264336166224,26.320135866184764,28.769984392812454,0,384,10,1,202
43.72506761977566,45.714264336166224,26.320135866184764,28.769984392812454,0,384,10,1,203
43.72562936911731,45.71122965551039,26.320135866184764,28.769984392812454,0,384,10,1,204
43.72562936911731,45.71122965551039,26.320135866184764,28.769984392812454,0,448,10,1,205
43.72562936911731,45.714264336166224,26.320135866184764,28.769984392812454,0,448,10,1,206
43.72541970420588,45.714705450360036,26.320135866184764,28.769984392812454,0,448,10,1,207
43.72541970420588,45.714264336166224,26.320135866184764,28.769984392812454,0,448,10,1,208
43.72541970420588,45.71122965551039,26.320135866184764,28.769984392812454,0,448,10,1,209
43.72541970420588,45.71078864192476,26.320135866184764,28.769984392812454,0,320,10,1,210
43.72541970420588,45.71122965551039,26.320135866184764,28.769984392812454,0,320,10,1,211
43.72562936911731,45.71122965551039,26.320135866184764,28.769984392812454,0,320,10,1,212
43.726051230064485,45.714264336166224,26.320135866184764,28.769984392812454,0,320,10,1,213
43.72895411854121,45.714264336166224,26.320135866184764,28.769984392812454,0,320,10,1,214
43.726051230064485,45.715533190270826,26.320135866184764,28.769984392812454,0,256,10,1,215
43.72541970420588,45.71487108651643,26.320135866184764,28.769984392812454,0,256,10,1,216
43.72541970420588,45.71487108651643,26.320135866184764,28.769984392812454,0,256,10,1,217
43.72541970420588,45.714705450360036,26.320135866184764,28.769984392812454,0,256,10,1,218
43.72506761977566,45.714705450360036,26.320135866184764,28.769984392812454,0,256,10,1,219
43.72562936911731,45.714264336166224,26.320135866184764,28.769984392812454,0,448,10,1,220
43.72895411854121,45.71509213516547,26.320135866184764,28.769984392812454,0,448,10,1,221
43.72895411854121,45.71509213516547,26.320135866184764,28.769984392812454,0,448,10,1,222
43.72562936911731,45.71509213516547,26.320135866184764,28.769984392812454,0,448,10,1,223
43.72562936911731,45.71509213516547,26.320135866184764,28.769984392812454,0,448,10,1,224
43.72562936911731,45.71509213516547,26.320135866184764,28.769984392812454,0,320,10,1,225
43.72562936911731,45.71509213516547,26.320135866184764,28.769984392812454,0,320,10,1,226
43.72541970420588,45.71487108651643,26.320135866184764,28.769984392812454,0,320,10,1,227
43.72541970420588,45.71122965551039,26.320135866184764,28.769984392812454,0,320,10,1,228
43.72562936911731,45.71078864192476,26.320135866184764,28.769984392812454,0,192,10,1,229
43.72562936911731,45.71078864192476,26.320135866184764,28.769984392812454,0,192,10,1,230
43.726051230064485,45.71122965551039,26.320135866184764,28.769984392812454,0,192,10,1,231
43.726051230064485,45.71122965551039,26.320135866184764,28.769984392812454,0,192,10,1,232
43.726051230064485,45.71122965551039,26.320135866184764,28.769984392812454,0,192,10,1,233
43.726051230064485,45.71122965551039,26.320135866184764,28.769984392812454,0,192,10,1,234
43.72562936911731,45.71078864192476,26.320135866184764,28.769984392812454,0,192,10,1,235
43.726051230064485,45.71078864192476,26.320135866184764,28.769984392812454,0,0,10,1,236
43.72562936911731,45.71078864192476,26.320135866184764,28.769984392812454,0,0,10,1,237
43.726051230064485,45.71078864192476,26.320135866184764,28.769984392812454,0,256,10,1,238
43.72562936911731,45.71078864192476,26.320135866184764,28.769984392812454,0,256,10,1,239
43.726051230064485,45.71122965551039,26.320135866184764,28.769984392812454,0,256,10,1,240
43.72562936911731,45.71078864192476,26.320135866184764,28.769984392812454,0,256,10,1,241
43.72562936911731,45.714043233920385,26.320135866184764,28.769984392812454,0,256,10,1,242
43.72562936911731,45.714264336166224,26.320135866184764,28.769984392812454,0,256,10,1,243
43.72562936911731,45.714264336166224,26.320135866184764,28.769984392812454,0,256,10,1,244
43.72562936911731,45.71509213516547,26.320135866184764,28.769984392812454,0,384,10,1,245
43.72562936911731,45.71078864192476,26.320135866184764,28.769984392812454,0,384,10,1,246
43.72562936911731,45.71145120678236,26.320135866184764,28.769984392812454,0,384,10,1,247
43.72562936911731,45.71145120678236,26.320135866184764,28.769984392812454,0,384,10,1,248
43.72562936911731,45.71145120678236,26.320135866184764,28.769984392812454,0,384,10,1,249
43.72562936911731,45.714043233920385,26.320135866184764,28.769984392812454,0,256,10,1,250
43.72562936911731,45.71122965551039,26.320135866184764,28.769984392812454,0,256,10,1,251
43.72541970420588,45.71487108651643,26.320135866184764,28.769984392812454,0,256,10,1,252
43.72541970420588,45.714264336166224,26.320135866184764,28.769984392812454,0,256,10,1,253
43.726051230064485,45.71487108651643,26.320135866184764,28.769984392812454,0,256,10,1,254
43.726051230064485,45.714264336166224,26.320135866184764,28.769984392812454,0,448,10,1,255
43.726051230064485,45.714264336166224,26.320135866184764,28.769984392812454,0,448,10,1,0
43.72541970420588,45.7105674894206,26.320135866184764,28.769984392812454,0,448,10,1,1
43.726051230064485,45.71122965551039,26.320135866184764,28.769984392812454,0,448,10,1,2
43.72541970420588,45.71122965551039,26.320135866184764,28.769984392812454,0,448,10,1,3
43.726051230064485,45.711616637973336,26.320135866184764,28.769984392812454,0,384,10,1,4
43.72506761977566,45.714264336166224,26.320135866184764,28.769984392812454,0,384,10,1,5
43.72562936911731,45.711616637973336,26.320135866184764,28.769984392812454,0,384,10,1,6
43.72562936911731,45.714705450360036,26.320135866184764,28.769984392812454,0,384,10,1,7
43.726051230064485,45.71122965551039,26.320135866184764,28.769984392812454,0,384,10,1,8
43.726051230064485,45.715533190270826,26.320135866184764,28.769984392812454,0,256,10,1,9
43.726051230064485,45.71122965551039,26.320135866184764,28.769984392812454,0,256,10,1,10
43.72562936911731,45.71078864192476,26.320135866184764,28.769984392812454,0,256,10,1,11
43.72562936911731,45.71078864192476,26.320135866184764,28.769984392812454,0,256,10,1,12
43.72562936911731,45.71078864192476,26.320135866184764,28.769984392812454,0,256,10,1,13
43.72562936911731,45.71122965551039,26.320135866184764,28.769984392812454,0,256,10,1,14
43.726051230064485,45.714264336166224,26.320135866184764,28.769984392812454,0,256,10,1,15
43.726051230064485,45.714264336166224,26.320135866184764,28.769984392812454,0,256,10,1,16
43.726051230064485,45.71122965551039,26.320135866184764,28.769984392812454,0,256,10,1,17
43.726051230064485,45.71122965551039,26.320135866184764,28.769984392812454,0,256,10,1,18
43.726051230064485,45.71122965551039,26.320135866184764,28.769984392812454,0,256,10,1,19
43.726051230064485,45.71122965551039,26.320135866184764,28.769984392812454,0,448,10,1,20
43.72562936911731,45.71122965551039,26.320135866184764,28.769984392812454,0,448,10,1,21
43.72562936911731,45.71122965551039,26.320135866184764,28.769984392812454,0,448,10,1,22
43.726051230064485,45.71078864192476,26.320135866184764,28.769984392812454,0,192,10,1,23
43.726051230064485,45.71122965551039,26.320135866184764,28.769984392812454,0,192,10,1,24
43.72895411854121,45.714264336166224,26.320135866184764,28.769984392812454,0,192,10,1,25
43.72895411854121,45.714705450360036,26.320135866184764,28.769984392812454,0,192,10,1,26
43.72895411854121,45.714705450360036,26.320135866184764,28.769984392812454,0,448,10,1,27
43.72874450184863,45.714705450360036,26.320135866184764,28.769984392812454,0,448,10,1,28
43.72874450184863,45.714264336166224,26.320135866184764,28.769984392812454,0,384,10,1,29
43.72562936911731,45.71078864192476,26.320135866184764,28.769984392812454,0,384,10,1,30
43.72874450184863,45.714043233920385,26.320135866184764,28.769984392812454,0,384,10,1,31
43.72541970420588,45.7105674894206,26.320135866184764,28.769984392812454,0,384,10,1,32
43.726051230064485,45.714043233920385,26.320135866184764,28.769984392812454,0,384,10,1,33
43.72541970420588,45.714705450360036,26.320135866184764,28.769984392812454,0,320,10,1,34
43.72562936911731,45.714705450360036,26.320135866184764,28.769984392812454,0,320,10,1,35
43.72541970420588,45.71122965551039,26.320135866184764,28.769984392812454,0,320,10,1,36
43.72562936911731,45.71078864192476,26.320135866184764,28.769984392812454,0,320,10,1,37
43.72562936911731,45.71078864192476,26.320135866184764,28.769984392812454,0,320,10,1,38
43.72562936911731,45.71078864192476,26.320135866184764,28.769984392812454,0,256,10,1,39
43.72562936911731,45.71078864192476,26.320135866184764,28.769984392812454,0,256,10,2,41
43.72562936911731,45.71078864192476,63.90138460818763,14.841065456253029,0,256,10,2,42
43.72562936911731,45.71078864192476,63.901918045613144,14.838613819187533,0,256,10,2,43
43.72562936911731,45.71078864192476,63.90615806816385,14.838613819187533,0,320,10,2,44
43.72562936911731,45.71078864192476,63.901918045613144,14.838613819187533,0,320,10,2,45
43.72562936911731,45.71078864192476,63.90252911957746,14.8412041051111,0,320,10,2,46
43.72562936911731,45.71078864192476,63.90251512095053,14.838123821416872,0,320,10,2,47
43.72562936911731,45.71078864192476,63.90251512095053,14.841065456253029,0,320,10,2,48
43.72562936911731,45.71078864192476,63.90251512095053,14.838123821416872,0,448,10,2,49
43.72562936911731,45.71078864192476,63.90138460818763,14.841065456253029,0,448,10,2,50
43.72562936911731,45.71078864192476,63.901918045613144,14.838613819187533,0,448,10,2,51
43.72562936911731,45.71078864192476,63.901918045613144,14.841065456253029,0,448,10,2,52
43.72562936911731,45.71078864192476,63.901981590529026,14.841832526158974,0,448,10,2,53
43.72562936911731,45.71078864192476,63.90252911957746,14.842159392811128,0,384,10,2,54
43.72562936911731,45.71078864192476,63.901981590529026,14.842159392811128,0,384,10,2,55
43.72562936911731,45.71078864192476,63.90609478623664,14.842787854308746,0,384,10,2,56
43.72562936911731,45.71078864192476,63.90609478623664,14.842787854308746,0,384,10,2,57
43.72562936911731,45.71078864192476,63.90609478623664,14.842159392811128,0,384,10,2,58
43.72562936911731,45.71078864192476,63.90252911957746,14.842159392811128,0,384,10,2,59
43.72562936911731,45.71078864192476,63.90199559717802,14.841065456253029,0,384,10,2,60
43.72562936911731,45.71078864192476,63.901918045613144,14.841065456253029,0,384,10,2,61
43.72562936911731,45.71078864192476,63.901918045613144,14.838613819187533,0,384,10,2,62
43.72562936911731,45.71078864192476,63.901918045613144,14.841065456253029,0,384,10,2,63
43.72562936911731,45.71078864192476,63.901918045613144,14.841693871430095,0,384,10,2,64
43.72562936911731,45.71078864192476,63.90138460818763,14.841693871430095,0,256,10,2,65
43.72562936911731,45.71078864192476,63.90138460818763,14.841693871430095,0,256,10,2,66
43.72562936911731,45.71078864192476,63.901918045613144,14.841065456253029,0,256,10,2,67
43.72562936911731,45.71078864192476,63.901918045613144,14.8412041051111,0,256,10,2,68
43.72562936911731,45.71078864192476,63.901918045613144,14.837985180899043,0,192,10,2,69
43.72562936911731,45.71078864192476,63.89781920433475,14.837520143954789,0,192,10,2,70
43.72562936911731,45.71078864192476,63.89781920433475,14.837520143954789,0,192,10,2,71
43.72562936911731,45.71078864192476,63.90252911957746,14.837985180899043,0,192,10,2,72
43.72562936911731,45.71078864192476,63.90252911957746,14.837985180899043,0,192,10,2,73
43.72562936911731,45.71078864192476,63.901918045613144,14.838613819187533,0,448,10,2,74
43.72562936911731,45.71078864192476,63.901918045613144,14.838613819187533,0,448,10,2,75
43.72562936911731,45.71078864192476,63.90138460818763,14.841065456253029,0,448,10,2,76
43.72562936911731,45.71078864192476,63.89781920433475,14.838613819187533,0,448,10,2,77
43.72562936911731,45.71078864192476,63.89781920433475,14.838613819187533,0,448,10,2,78
43.72562936911731,45.71078864192476,63.901918045613144,14.838613819187533,0,448,10,2,79
43.72562936911731,45.71078864192476,63.901918045613144,14.838613819187533,0,448,10,2,80
43.72562936911731,45.71078864192476,63.901918045613144,14.838613819187533,0,448,10,2,81
43.72562936911731,45.71078864192476,63.901981590529026,14.841065456253029,0,448,10,2,82
43.72562936911731,45.71078864192476,63.901981590529026,14.837520143954789,0,448,10,2,83
43.72562936911731,45.71078864192476,63.901918045613144,14.842159392811128,0,320,10,2,84
43.72562936911731,45.71078864192476,63.901918045613144,14.837520143954789,0,320,10,2,85
43.72562936911731,45.71078864192476,63.901918045613144,14.837985180899043,0,320,10,2,86
43.72562936911731,45.71078864192476,63.90193170250096,14.837985180899043,0,320,10,2,87
43.72562936911731,45.71078864192476,63.901918045613144,14.838475094767555,0,320,10,2,88
43.72562936911731,45.71078864192476,63.90193170250096,14.841065456253029,0,320,10,2,89
43.72562936911731,45.71078864192476,63.90199559717802,14.841693871430095,0,320,10,2,90
43.72562936911731,45.71078864192476,63.90199559717802,14.841693871430095,0,320,10,2,91
43.72562936911731,45.71078864192476,63.90251512095053,14.842298072331214,0,320,10,2,92
43.72562936911731,45.71078864192476,63.89781920433475,14.841693871430095,0,320,10,2,93
43.72562936911731,45.71078864192476,63.90199559717802,14.841693871430095,0,384,10,2,94
43.72562936911731,45.71078864192476,63.901918045613144,14.841693871430095,0,384,10,2,95
43.72562936911731,45.71078864192476,63.901981590529026,14.841693871430095,0,384,10,2,96
43.72562936911731,45.71078864192476,63.901918045613144,14.841693871430095,0,384,10,2,97
43.72562936911731,45.71078864192476,63.901981590529026,14.841693871430095,0,384,10,2,98
43.72562936911731,45.71078864192476,63.90251512095053,14.842298072331214,0,384,10,2,99
43.72562936911731,45.71078864192476,63.90251512095053,14.842298072331214,0,384,10,2,100
43.72562936911731,45.71078864192476,63.901981590529026,14.8412041051111,0,384,10,2,101
43.72562936911731,45.71078864192476,63.901981590529026,14.8412041051111,0,384,10,2,102
43.72562936911731,45.71078864192476,63.89720817540944,14.8412041051111,0,384,10,2,103
43.72562936911731,45.71078864192476,63.901918045613144,14.841693871430095,0,384,10,2,104
43.72562936911731,45.71078864192476,63.901918045613144,14.842159392811128,0,384,10,2,105
43.72562936911731,45.71078864192476,63.901918045613144,14.842159392811128,0,384,10,2,106
43.72562936911731,45.71078864192476,63.901918045613144,14.841065456253029,0,384,10,2,107
43.72562936911731,45.71078864192476,63.901918045613144,14.837985180899043,0,384,10,2,108
43.72562936911731,45.71078864192476,63.90199559717802,14.837985180899043,0,384,10,2,109
43.72562936911731,45.71078864192476,63.901918045613144,14.841065456253029,0,256,10,2,110
43.72562936911731,45.71078864192476,63.901918045613144,14.841693871430095,0,256,10,2,111
43.72562936911731,45.71078864192476,63.901918045613144,14.841693871430095,0,256,10,2,112
43.72562936911731,45.71078864192476,63.901918045613144,14.841065456253029,0,256,10,2,113
43.72562936911731,45.71078864192476,63.90199559717802,14.841065456253029,0,256,10,2,114
43.72562936911731,45.71078864192476,63.90199559717802,14.841065456253029,0,448,10,2,115
43.72562936911731,45.71078864192476,63.90199559717802,14.841065456253029,0,448,10,2,116
43.72562936911731,45.71078864192476,63.901462153683134,14.839971679643694,0,448,10,2,117
43.72562936911731,45.71078864192476,63.90251512095053,14.839971679643694,0,448,10,2,118
43.72562936911731,45.71078864192476,63.901462153683134,14.841065456253029,0,192,10,2,119
43.72562936911731,45.71078864192476,63.90199559717802,14.841693871430095,0,128,10,2,120
43.72562936911731,45.71078864192476,63.90199559717802,14.841065456253029,0,128,10,2,121
43.72562936911731,45.71078864192476,63.90251512095053,14.841693871430095,0,128,10,2,122
43.72562936911731,45.71078864192476,63.90670582026311,14.842159392811128,0,320,10,2,123
43.72562936911731,45.71078864192476,63.90670582026311,14.842159392811128,0,320,10,2,124
43.72562936911731,45.71078864192476,63.90251512095053,14.841065456253029,0,320,10,2,125
43.72562936911731,45.71078864192476,63.90138460818763,14.841065456253029,0,320,10,2,126
43.72562936911731,45.71078864192476,63.90199559717802,14.838123821416872,0,320,10,2,127
43.72562936911731,45.71078864192476,63.90199559717802,14.838123821416872,0,320,10,2,128
43.72562936911731,45.71078864192476,63.90199559717802,14.836891551999882,0,384,10,2,129
43.72562936911731,45.71078864192476,63.90199559717802,14.838123821416872,0,384,10,2,130
43.72562936911731,45.71078864192476,63.90138460818763,14.841065456253029,0,384,10,2,131
43.72562936911731,45.71078864192476,63.901918045613144,14.841065456253029,0,384,10,2,132
43.72562936911731,45.71078864192476,63.90138460818763,14.841065456253029,0,384,10,2,133
43.72562936911731,45.71078864192476,63.901918045613144,14.841065456253029,0,256,10,2,134
43.72562936911731,45.71078864192476,63.90138460818763,14.838613819187533,0,256,10,2,135
43.72562936911731,45.71078864192476,63.897741310830526,14.838613819187533,0,256,10,2,136
43.72562936911731,45.71078864192476,63.897741310830526,14.841693871430095,0,256,10,2,137
43.72562936911731,45.71078864192476,63.90138460818763,14.842159392811128,0,256,10,2,138
43.72562936911731,45.71078864192476,63.90138460818763,14.841693871430095,0,256,10,2,139
43.72562936911731,45.71078864192476,63.90138460818763,14.841693871430095,0,320,10,1,141
11.28212006428032,3.5800055212634123,63.90138460818763,14.841693871430095,0,320,10,1,142
11.28212006428032,3.5800055212634123,63.90138460818763,14.841693871430095,0,320,10,1,143
11.28565458960318,3.5800366333887914,63.90138460818763,14.841693871430095,0,384,10,1,144
11.28565458960318,3.5800366333887914,63.90138460818763,14.841693871430095,0,384,10,1,145
11.282218111820164,3.5800366333887914,63.90138460818763,14.841693871430095,0,384,10,1,146
11.282218111820164,3.5800366333887914,63.90138460818763,14.841693871430095,0,384,10,1,147
11.286224964682079,3.580067729016097,63.90138460818763,14.841693871430095,0,384,10,1,148
11.286224964682079,3.5803147313303745,63.90138460818763,14.841693871430095,0,384,10,1,149
11.28309451671617,3.5803147313303745,63.90138460818763,14.841693871430095,0,320,10,1,150
11.28309451671617,3.5803147313303745,63.90138460818763,14.841693871430095,0,320,10,1,151
11.28309451671617,3.580283629266469,63.90138460818763,14.841693871430095,0,320,10,1,152
11.286224964682079,3.580283629266469,63.90138460818763,14.841693871430095,0,320,10,1,153
11.286224964682079,3.580067729016097,63.90138460818763,14.841693871430095,0,320,10,1,154
11.286126935183265,3.5800366333887914,63.90138460818763,14.841693871430095,0,320,10,1,155
11.282218111820164,3.5800366333887914,63.90138460818763,14.841693871430095,0,320,10,1,156
11.286126935183265,3.5800366333887914,63.90138460818763,14.841693871430095,0,320,10,1,157
11.28309451671617,3.5800366333887914,63.90138460818763,14.841693871430095,0,320,10,1,158
11.28309451671617,3.5800366333887914,63.90138460818763,14.841693871430095,0,320,10,1,159
11.282316107367558,3.580067729016097,63.90138460818763,14.841693871430095,0,256,10,1,160
11.282316107367558,3.580067729016097,63.90138460818763,14.841693871430095,0,256,10,1,161
11.28309451671617,3.5803147313303745,63.90138460818763,14.841693871430095,0,256,10,1,162
11.28309451671617,3.5803147313303745,63.90138460818763,14.841693871430095,0,256,10,1,163
11.28309451671617,3.5803147313303745,63.90138460818763,14.841693871430095,0,256,10,1,164
11.282996500884312,3.580283629266469,63.90138460818763,14.841693871430095,0,320,10,1,165
11.28309451671617,3.580283629266469,63.90138460818763,14.841693871430095,0,320,10,1,166
11.28309451671617,3.580283629266469,63.90138460818763,14.841693871430095,0,320,10,1,167
11.286224964682079,3.5803147313303745,63.90138460818763,14.841693871430095,0,320,10,1,168
11.28309451671617,3.5803147313303745,63.90138460818763,14.841693871430095,0,320,10,1,169
11.282996500884312,3.580283629266469,63.90138460818763,14.841693871430095,0,256,10,1,170
11.282996500884312,3.580283629266469,63.90138460818763,14.841693871430095,0,256,10,1,171
11.282316107367558,3.580067729016097,63.90138460818763,14.841693871430095,0,256,10,1,172
11.282316107367558,3.580067729016097,63.90138460818763,14.841693871430095,0,256,10,1,173
11.282316107367558,3.580067729016097,63.90138460818763,14.841693871430095,0,0,10,1,174
11.286126935183265,3.580067729016097,63.90138460818763,14.841693871430095,0,0,10,1,175
11.286224964682079,3.580067729016097,63.90138460818763,14.841693871430095,0,0,10,1,176
11.286126935183265,3.580067729016097,63.90138460818763,14.841693871430095,0,0,10,1,177
11.286905593927132,3.580283629266469,63.90138460818763,14.841693871430095,0,0,10,1,178
11.282316107367558,3.580067729016097,63.90138460818763,14.841693871430095,0,0,10,1,179
11.282316107367558,3.580067729016097,63.90138460818763,14.841693871430095,0,0,10,1,180
11.282316107367558,3.5800366333887914,63.90138460818763,14.841693871430095,0,0,10,1,181
11.286126935183265,3.5800366333887914,63.90138460818763,14.841693871430095,0,0,10,1,182
11.286126935183265,3.5800366333887914,63.90138460818763,14.841693871430095,0,256,10,1,183
11.286224964682079,3.580067729016097,63.90138460818763,14.841693871430095,0,256,10,1,184
11.286224964682079,3.580067729016097,63.90138460818763,14.841693871430095,0,256,10,1,185
11.286224964682079,3.580067729016097,63.90138460818763,14.841693871430095,0,256,10,1,186
11.286224964682079,3.580067729016097,63.90138460818763,14.841693871430095,0,256,10,1,187
11.286126935183265,3.580067729016097,63.90138460818763,14.841693871430095,0,256,10,1,188
11.286126935183265,3.5800366333887914,63.90138460818763,14.841693871430095,0,256,10,1,189
11.286126935183265,3.5800366333887914,63.90138460818763,14.841693871430095,0,384,10,1,190
11.286126935183265,3.5800366333887914,63.90138460818763,14.841693871430095,0,384,10,1,191
11.286807492115951,3.5802525107011856,63.90138460818763,14.841693871430095,0,384,10,1,192
11.286807492115951,3.5802525107011856,63.90138460818763,14.841693871430095,0,384,10,1,193
11.286126935183265,3.5802525107011856,63.90138460818763,14.841693871430095,0,384,10,1,194
11.286126935183265,3.5800366333887914,63.90138460818763,14.841693871430095,0,448,10,1,195
11.286126935183265,3.5800366333887914,63.90138460818763,14.841693871430095,0,448,10,1,196
11.286126935183265,3.5800366333887914,63.90138460818763,14.841693871430095,0,448,10,1,197
11.286126935183265,3.5800366333887914,63.90138460818763,14.841693871430095,0,448,10,1,198
11.285446392228991,3.5800366333887914,63.90138460818763,14.841693871430095,0,448,10,1,199
11.285446392228991,3.580067729016097,63.90138460818763,14.841693871430095,0,256,10,1,200
11.285446392228991,3.580067729016097,63.90138460818763,14.841693871430095,0,256,10,1,201
11.286224964682079,3.580067729016097,63.90138460818763,14.841693871430095,0,256,10,1,202
11.286224964682079,3.580067729016097,63.90138460818763,14.841693871430095,0,256,10,1,203
11.286224964682079,3.580283629266469,63.90138460818763,14.841693871430095,0,256,10,1,204
11.286126935183265,3.580283629266469,63.90138460818763,14.841693871430095,0,384,10,1,205
11.286126935183265,3.580283629266469,63.90138460818763,14.841693871430095,0,384,10,1,206
11.286126935183265,3.580067729016097,63.90138460818763,14.841693871430095,0,384,10,1,207
11.282316107367558,3.580067729016097,63.90138460818763,14.841693871430095,0,384,10,1,208
11.282316107367558,3.580067729016097,63.90138460818763,14.841693871430095,0,384,10,1,209
11.285446392228991,3.580067729016097,63.90138460818763,14.841693871430095,0,384,10,1,210
11.286224964682079,3.580067729016097,63.90138460818763,14.841693871430095,0,384,10,1,211
11.286224964682079,3.580067729016097,63.90138460818763,14.841693871430095,0,384,10,1,212
11.286126935183265,3.5800366333887914,63.90138460818763,14.841693871430095,0,384,10,1,213
11.286126935183265,3.5800366333887914,63.90138460818763,14.841693871430095,0,384,10,1,214
11.286126935183265,3.580067729016097,63.90138460818763,14.841693871430095,0,448,10,1,215
11.28309451671617,3.5803147313303745,63.90138460818763,14.841693871430095,0,448,10,1,216
11.286126935183265,3.5803147313303745,63.90138460818763,14.841693871430095,0,448,10,1,217
11.28309451671617,3.5800366333887914,63.90138460818763,14.841693871430095,0,448,10,1,218
11.286126935183265,3.5800366333887914,63.90138460818763,14.841693871430095,0,448,10,1,219
11.286224964682079,3.580067729016097,63.90138460818763,14.841693871430095,0,448,10,1,220
11.286224964682079,3.580067729016097,63.90138460818763,14.841693871430095,0,320,10,1,221
11.286335184451083,3.580283629266469,63.90138460818763,14.841693871430095,0,320,10,1,222
11.286224964682079,3.580067729016097,63.90138460818763,14.841693871430095,0,320,10,1,223
11.286126935183265,3.5800366333887914,63.90138460818763,14.841693871430095,0,320,10,1,224
11.286126935183265,3.5800366333887914,63.90138460818763,14.841693871430095,0,64,10,1,225
11.286126935183265,3.5800366333887914,63.90138460818763,14.841693871430095,0,0,10,1,226
11.286126935183265,3.5800366333887914,63.90138460818763,14.841693871430095,0,0,10,1,227
11.282218111820164,3.5800366333887914,63.90138460818763,14.841693871430095,0,256,10,1,228
11.282218111820164,3.5800366333887914,63.90138460818763,14.841693871430095,0,256,10,1,229
11.286126935183265,3.5800366333887914,63.90138460818763,14.841693871430095,0,448,10,1,230
11.286126935183265,3.5800366333887914,63.90138460818763,14.841693871430095,0,448,10,1,231
11.286126935183265,3.5800366333887914,63.90138460818763,14.841693871430095,0,448,10,1,232
11.286126935183265,3.5800366333887914,63.90138460818763,14.841693871430095,0,448,10,1,233
11.286126935183265,3.5800366333887914,63.90138460818763,14.841693871430095,0,448,10,1,234
11.286224964682079,3.580067729016097,63.90138460818763,14.841693871430095,0,384,10,1,235
11.286905593927132,3.580283629266469,63.90138460818763,14.841693871430095,0,384,10,1,236
11.286224964682079,3.580067729016097,63.90138460818763,14.841693871430095,0,384,10,1,237
11.282316107367558,3.580067729016097,63.90138460818763,14.841693871430095,0,384,10,1,238
11.282316107367558,3.580067729016097,63.90138460818763,14.841693871430095,0,384,10,1,239
11.282316107367558,3.580067729016097,63.89781920433475,14.842159392811128,0,320,10,2,241
11.282316107367558,3.580067729016097,62.39566833181335,68.28628157619423,0,320,10,2,242
11.282316107367558,3.580067729016097,62.39566833181335,68.28628157619423,0,320,10,2,243
11.282316107367558,3.580067729016097,62.39997862904865,68.29099879741415,0,320,10,2,244
11.282316107367558,3.580067729016097,62.39997862904865,68.29099879741415,0,320,10,2,245
11.282316107367558,3.580067729016097,62.39612373448012,68.29099879741415,0,320,10,2,246
11.282316107367558,3.580067729016097,62.39612373448012,68.2909712700098,0,320,10,2,247
11.282316107367558,3.580067729016097,62.39612373448012,68.2909712700098,0,320,10,2,248
11.282316107367558,3.580067729016097,62.39612373448012,68.2909712700098,0,320,10,2,249
11.282316107367558,3.580067729016097,62.39612373448012,68.29168327943896,0,384,10,2,250
11.282316107367558,3.580067729016097,62.39616743848529,68.29168327943896,0,384,10,2,251
11.282316107367558,3.580067729016097,62.39616743848529,68.29168327943896,0,384,10,2,252
11.282316107367558,3.580067729016097,62.39612373448012,68.2909712700098,0,384,10,2,253
11.282316107367558,3.580067729016097,62.39612373448012,68.2872096215692,0,384,10,2,254
11.282316107367558,3.580067729016097,62.39612373448012,68.2872096215692,0,448,10,2,255
11.282316107367558,3.580067729016097,62.39612373448012,68.2872096215692,0,448,10,2,0
11.282316107367558,3.580067729016097,62.39612373448012,68.2872096215692,0,448,10,2,1
11.282316107367558,3.580067729016097,62.39612373448012,68.2872096215692,0,448,10,2,2
11.282316107367558,3.580067729016097,62.39566833181335,68.28649756549413,0,448,10,2,3
11.282316107367558,3.580067729016097,62.39612373448012,68.2872096215692,0,448,10,2,4
11.282316107367558,3.580067729016097,62.39571203835158,68.28649756549413,0,448,10,2,5
11.282316107367558,3.580067729016097,62.39571203835158,68.28649756549413,0,448,10,2,6
11.282316107367558,3.580067729016097,62.39545495416884,68.28649756549413,0,448,10,2,7
11.282316107367558,3.580067729016097,62.39545495416884,68.28649756549413,0,448,10,2,8
11.282316107367558,3.580067729016097,62.39612373448012,68.2872096215692,0,448,10,2,9
11.282316107367558,3.580067729016097,62.39612373448012,68.2909712700098,0,320,10,2,10
11.282316107367558,3.580067729016097,62.39612373448012,68.2909712700098,0,320,10,2,11
11.282316107367558,3.580067729016097,62.39612373448012,68.2909712700098,0,320,10,2,12
11.282316107367558,3.580067729016097,62.39612373448012,68.2872096215692,0,320,10,2,13
11.282316107367558,3.580067729016097,62.39612373448012,68.2872096215692,0,64,10,2,14
11.282316107367558,3.580067729016097,62.39562455568525,68.28649756549413,0,64,10,2,15
11.282316107367558,3.580067729016097,62.39562455568525,68.28628157619423,0,64,10,2,16
11.282316107367558,3.580067729016097,62.39566833181335,68.28649756549413,0,64,10,2,17
11.282316107367558,3.580067729016097,62.39657921010793,68.2881378143516,0,64,10,2,18
11.282316107367558,3.580067729016097,62.399935332969704,68.2909712700098,0,64,10,2,19
11.282316107367558,3.580067729016097,62.399935332969704,68.2909712700098,0,0,10,2,20
11.282316107367558,3.580067729016097,62.39607996086888,68.28718158195866,0,0,10,2,21
11.282316107367558,3.580067729016097,62.39607996086888,68.28718158195866,0,0,10,2,22
11.282316107367558,3.580067729016097,62.39612373448012,68.2872096215692,0,256,10,2,23
11.282316107367558,3.580067729016097,62.39612373448012,68.2872096215692,0,384,10,2,24
11.282316107367558,3.580067729016097,62.39612373448012,68.2872096215692,0,384,10,2,25
11.282316107367558,3.580067729016097,62.39612373448012,68.2872096215692,0,384,10,2,26
11.282316107367558,3.580067729016097,62.39612373448012,68.29168327943896,0,384,10,2,27
11.282316107367558,3.580067729016097,62.39657921010793,68.29261181870363,0,384,10,2,28
11.282316107367558,3.580067729016097,62.399935332969704,68.29168327943896,0,384,10,2,29
11.282316107367558,3.580067729016097,62.399935332969704,68.2909712700098,0,384,10,2,30
11.282316107367558,3.580067729016097,62.39612373448012,68.2872096215692,0,384,10,2,31
11.282316107367558,3.580067729016097,62.39545495416884,68.2872096215692,0,384,10,2,32
11.282316107367558,3.580067729016097,62.39545495416884,68.2872096215692,0,384,10,2,33
11.282316107367558,3.580067729016097,62.39612373448012,68.2872096215692,0,448,10,2,34
11.282316107367558,3.580067729016097,62.39612373448012,68.2872096215692,0,448,10,2,35
11.282316107367558,3.580067729016097,62.39612373448012,68.29168327943896,0,448,10,2,36
11.282316107367558,3.580067729016097,62.39657921010793,68.2881378143516,0,448,10,2,37
11.282316107367558,3.580067729016097,62.39657921010793,68.2909712700098,0,448,10,2,38
11.282316107367558,3.580067729016097,62.39657921010793,68.2909712700098,0,448,10,2,39
11.282316107367558,3.580067729016097,62.40039105493825,68.29168327943896,0,320,10,2,40
11.282316107367558,3.580067729016097,62.40039105493825,68.29168327943896,0,320,10,2,41
11.282316107367558,3.580067729016097,62.40060406526239,68.29168327943896,0,320,10,2,42
11.282316107367558,3.580067729016097,62.399935332969704,68.29168327943896,0,320,10,2,43
11.282316107367558,3.580067729016097,62.39612373448012,68.29168327943896,0,320,10,2,44
11.282316107367558,3.580067729016097,62.39612373448012,68.2872096215692,0,448,10,2,45
11.282316107367558,3.580067729016097,62.39612373448012,68.2872096215692,0,448,10,2,46
11.282316107367558,3.580067729016097,62.40060406526239,68.2872096215692,0,448,10,2,47
11.282316107367558,3.580067729016097,62.40060406526239,68.2909712700098,0,448,10,2,48
11.282316107367558,3.580067729016097,62.40060406526239,68.29168327943896,0,448,10,2,49
11.282316107367558,3.580067729016097,62.40060406526239,68.29168327943896,0,384,10,2,50
11.282316107367558,3.580067729016097,62.399935332969704,68.29168327943896,0,384,10,2,51
11.282316107367558,3.580067729016097,62.399935332969704,68.29168327943896,0,384,10,2,52
11.282316107367558,3.580067729016097,62.399935332969704,68.29168327943896,0,384,10,2,53
11.282316107367558,3.580067729016097,62.39612373448012,68.29168327943896,0,384,10,2,54
11.282316107367558,3.580067729016097,62.39612373448012,68.29168327943896,0,256,10,2,55
11.282316107367558,3.580067729016097,62.39612373448012,68.29168327943896,0,256,10,2,56
11.282316107367558,3.580067729016097,62.39612373448012,68.29168327943896,0,256,10,2,57
11.282316107367558,3.580067729016097,62.40060406526239,68.29168327943896,0,256,10,2,58
11.282316107367558,3.580067729016097,62.40060406526239,68.29168327943896,0,256,10,2,59
11.282316107367558,3.580067729016097,62.40060406526239,68.29168327943896,0,320,10,2,60
11.282316107367558,3.580067729016097,62.40060406526239,68.29168327943896,0,320,10,2,61
11.282316107367558,3.580067729016097,62.39612373448012,68.2872096215692,0,320,10,2,62
11.282316107367558,3.580067729016097,62.40060406526239,68.29168327943896,0,320,10,2,63
11.282316107367558,3.580067729016097,62.39612373448012,68.29168327943896,0,128,10,2,64
11.282316107367558,3.580067729016097,62.39612373448012,68.29168327943896,0,128,10,2,65
11.282316107367558,3.580067729016097,62.39612373448012,68.29072692492728,0,128,10,2,66
11.282316107367558,3.580067729016097,62.39612373448012,68.29072692492728,0,128,10,2,67
11.282316107367558,3.580067729016097,62.40060406526239,68.29168327943896,0,320,10,2,68
11.282316107367558,3.580067729016097,62.40060406526239,68.29168327943896,0,320,10,2,69
11.282316107367558,3.580067729016097,62.40060406526239,68.29168327943896,0,320,10,2,70
11.282316107367558,3.580067729016097,62.40060406526239,68.29168327943896,0,320,10,2,71
11.282316107367558,3.580067729016097,62.40060406526239,68.29168327943896,0,320,10,2,72
11.282316107367558,3.580067729016097,62.399935332969704,68.29168327943896,0,320,10,2,73
11.282316107367558,3.580067729016097,62.399935332969704,68.29168327943896,0,320,10,2,74
11.282316107367558,3.580067729016097,62.40039105493825,68.29261181870363,0,320,10,2,75
11.282316107367558,3.580067729016097,62.40039105493825,68.29261181870363,0,320,10,2,76
11.282316107367558,3.580067729016097,62.40039105493825,68.29168327943896,0,320,10,2,77
11.282316107367558,3.580067729016097,62.40056038454908,68.29168327943896,0,320,10,2,78
11.282316107367558,3.580067729016097,62.40056038454908,68.29165533128682,0,320,10,2,79
11.282316107367558,3.580067729016097,62.40014831538206,68.29075488763458,0,448,10,2,80
11.282316107367558,3.580067729016097,62.39612373448012,68.2872096215692,0,448,10,2,81
11.282316107367558,3.580067729016097,62.39612373448012,68.29075488763458,0,448,10,2,82
11.282316107367558,3.580067729016097,62.39612373448012,68.29165533128682,0,448,10,2,83
11.286224964682079,3.580067729016097,62.39612373448012,68.29165533128682,0,256,10,1,85
43.636760076153614,46.02269612500712,62.39612373448012,68.29165533128682,0,256,10,1,86
43.720899218332846,46.111570954336024,62.39612373448012,68.29165533128682,0,256,10,1,87
43.72562936911731,46.11201609689832,62.39612373448012,68.29165533128682,0,256,10,1,88
43.72562936911731,46.11201609689832,62.39612373448012,68.29165533128682,0,256,10,1,89
43.72541970420588,46.11201609689832,62.39612373448012,68.29165533128682,0,320,10,1,90
43.72464570416311,46.11180128784714,62.39612373448012,68.29165533128682,0,320,10,1,91
43.72541970420588,46.11180128784714,62.39612373448012,68.29165533128682,0,320,10,1,92
43.72541970420588,46.11180128784714,62.39612373448012,68.29165533128682,0,320,10,1,93
43.72541970420588,46.11180128784714,62.39612373448012,68.29165533128682,117,320,10,1,94
43.72541970420588,46.11180128784714,62.39612373448012,68.29165533128682,544,448,10,1,95
43.72541970420588,46.11180128784714,62.39612373448012,68.29165533128682,1125,448,10,1,96
43.72541970420588,46.11180128784714,62.39612373448012,68.29165533128682,1803,448,10,1,97
43.72562936911731,46.11180128784714,62.39612373448012,68.29165533128682,2534,448,10,1,98
43.72562936911731,46.11201609689832,62.39612373448012,68.29165533128682,3280,448,10,1,99
43.72562936911731,46.11201609689832,62.39612373448012,68.29165533128682,3916,256,10,1,100
43.72562936911731,46.11201609689832,62.39612373448012,68.29165533128682,3999,256,10,1,101
43.72562936911731,46.11180128784714,62.39612373448012,68.29165533128682,3999,256,10,1,102
43.72562936911731,46.11180128784714,62.39612373448012,68.29165533128682,3999,256,10,1,103
43.72562936911731,46.11180128784714,62.39612373448012,68.29165533128682,3999,256,10,1,104
43.72562936911731,46.11180128784714,62.39612373448012,68.29165533128682,3999,384,10,1,105
43.72562936911731,46.11180128784714,62.39612373448012,68.29165533128682,3999,384,10,1,106
43.72562936911731,46.111003247237335,62.39612373448012,68.29165533128682,3999,384,10,1,107
43.72562936911731,46.111003247237335,62.39612373448012,68.29165533128682,3999,384,10,1,108
43.72562936911731,46.11201609689832,62.39612373448012,68.29165533128682,3999,128,10,1,109
43.72562936911731,46.11201609689832,62.39612373448012,68.29165533128682,3999,128,10,1,110
43.729376075727274,46.11201609689832,62.39612373448012,68.29165533128682,3999,128,10,1,111
43.729376075727274,46.11201609689832,62.39612373448012,68.29165533128682,3999,128,10,1,112
43.72562936911731,46.11135640961963,62.39612373448012,68.29165533128682,3999,128,10,1,113
43.72562936911731,46.11180128784714,62.39612373448012,68.29165533128682,3999,384,10,1,114
43.72562936911731,46.11180128784714,62.39612373448012,68.29165533128682,3999,384,10,1,115
43.72562936911731,46.11201609689832,62.39612373448012,68.29165533128682,3999,384,10,1,116
43.72874450184863,46.11530754140085,62.39612373448012,68.29165533128682,3999,384,10,1,117
43.729376075727274,46.11530754140085,62.39612373448012,68.29165533128682,3999,384,10,1,118
43.72874450184863,46.11180128784714,62.39612373448012,68.29165533128682,3999,384,10,1,119
43.726051230064485,46.11180128784714,62.39612373448012,68.29165533128682,3999,256,10,1,120
43.72562936911731,46.11201609689832,62.39612373448012,68.29165533128682,3999,256,10,1,121
43.72562936911731,46.11201609689832,62.39612373448012,68.29165533128682,3999,256,10,1,122
43.72562936911731,46.11201609689832,62.39612373448012,68.29165533128682,3999,256,10,1,123
43.72562936911731,46.11180128784714,62.39612373448012,68.29165533128682,3999,256,10,1,124
43.72562936911731,46.11201609689832,62.39612373448012,68.29165533128682,3999,256,10,1,125
43.726051230064485,46.11180128784714,62.39612373448012,68.29165533128682,3999,256,10,1,126
43.72562936911731,46.11180128784714,62.39612373448012,68.29165533128682,3999,256,10,1,127
43.726051230064485,46.11180128784714,62.39612373448012,68.29165533128682,3999,256,10,1,128
43.726051230064485,46.11246098149043,62.39612373448012,68.29165533128682,3999,256,10,1,129
43.726051230064485,46.11246098149043,62.39612373448012,68.29165533128682,3999,320,10,1,130
43.726051230064485,46.11180128784714,62.39612373448012,68.29165533128682,3999,320,10,1,131
43.729727903919,46.11180128784714,62.39612373448012,68.29165533128682,3999,320,10,1,132
43.729727903919,46.11180128784714,62.39612373448012,68.29165533128682,3999,320,10,1,133
43.72895411854121,46.11135640961963,62.39612373448012,68.29165533128682,3999,320,10,1,134
43.726051230064485,46.11180128784714,62.39612373448012,68.29165533128682,3999,320,10,1,135
43.726051230064485,46.11121810807565,62.39612373448012,68.29165533128682,3999,320,10,1,136
43.72562936911731,46.11055830905337,62.39612373448012,68.29165533128682,3999,320,10,1,137
43.72562936911731,46.11055830905337,62.39612373448012,68.29165533128682,3999,320,10,1,138
43.72874450184863,46.111003247237335,62.39612373448012,68.29165533128682,3999,320,10,1,139
43.72874450184863,46.111003247237335,62.39612373448012,68.29165533128682,3999,256,10,1,140
43.72874450184863,46.111003247237335,62.39612373448012,68.29165533128682,3999,256,10,1,141
43.72874450184863,46.11180128784714,62.39612373448012,68.29165533128682,3999,256,10,1,142
43.72562936911731,46.11180128784714,62.39612373448012,68.29165533128682,3999,256,10,1,143
43.72562936911731,46.11180128784714,62.39612373448012,68.29165533128682,3999,256,10,1,144
43.72562936911731,46.11180128784714,62.39612373448012,68.29165533128682,3999,448,10,1,145
43.72562936911731,46.11180128784714,62.39612373448012,68.29165533128682,3999,448,10,1,146
43.72562936911731,46.11201609689832,62.39612373448012,68.29165533128682,3999,448,10,1,147
43.72562936911731,46.11201609689832,62.39612373448012,68.29165533128682,3999,448,10,1,148
43.72562936911731,46.11201609689832,62.39612373448012,68.29165533128682,3999,448,10,1,149
43.726051230064485,46.11180128784714,62.39612373448012,68.29165533128682,3999,448,10,1,150
43.726051230064485,46.11180128784714,62.39612373448012,68.29165533128682,3999,256,10,1,151
43.726051230064485,46.10815707617147,62.39612373448012,68.29165533128682,3999,256,10,1,152
43.726051230064485,46.10815707617147,62.39612373448012,68.29165533128682,3999,256,10,1,153
43.726051230064485,46.111003247237335,62.39612373448012,68.29165533128682,3999,256,10,1,154
43.72562936911731,46.11135640961963,62.39612373448012,68.29165533128682,3999,256,10,1,155
43.72562936911731,46.11135640961963,62.39612373448012,68.29165533128682,3999,256,10,1,156
43.72562936911731,46.11135640961963,62.39612373448012,68.29165533128682,3999,256,10,1,157
43.72562936911731,46.11135640961963,62.39612373448012,68.29165533128682,3999,256,10,1,158
43.72562936911731,46.11180128784714,62.39612373448012,68.29165533128682,3999,256,10,1,159
43.72562936911731,46.11180128784714,62.39612373448012,68.29165533128682,3999,192,10,1,160
43.72562936911731,46.11180128784714,62.39612373448012,68.29165533128682,3999,192,10,1,161
43.72541970420588,46.111003247237335,62.39612373448012,68.29165533128682,3999,192,10,1,162
43.72506761977566,46.111003247237335,62.39612373448012,68.29165533128682,3999,448,10,1,163
43.72506761977566,46.111003247237335,62.39612373448012,68.29165533128682,3999,448,10,1,164
43.72541970420588,46.11180128784714,62.39612373448012,68.29165533128682,3999,384,10,1,165
43.72562936911731,46.11180128784714,62.39612373448012,68.29165533128682,3999,384,10,1,166
43.72541970420588,46.11180128784714,62.39612373448012,68.29165533128682,3999,384,10,1,167
43.72895411854121,46.11180128784714,62.39612373448012,68.29165533128682,3999,384,10,1,168
43.72895411854121,46.11180128784714,62.39612373448012,68.29165533128682,3999,384,10,1,169
43.72895411854121,46.11121810807565,62.39612373448012,68.29165533128682,3999,256,10,1,170
43.72874450184863,46.11121810807565,62.39612373448012,68.29165533128682,3999,256,10,1,171
43.72874450184863,46.11180128784714,62.39612373448012,68.29165533128682,3999,256,10,1,172
43.72541970420588,46.11180128784714,62.39612373448012,68.29165533128682,3999,256,10,1,173
43.72541970420588,46.11180128784714,62.39612373448012,68.29165533128682,3999,256,10,1,174
43.72541970420588,46.111003247237335,62.39612373448012,68.29165533128682,3999,448,10,1,175
43.72562936911731,46.11180128784714,62.39612373448012,68.29165533128682,3999,448,10,1,176
43.72895411854121,46.11121810807565,62.39612373448012,68.29165533128682,3999,448,10,1,177
43.726051230064485,46.11180128784714,62.39612373448012,68.29165533128682,3999,448,10,1,178
43.726051230064485,46.11180128784714,62.39612373448012,68.29165533128682,3999,448,10,1,179
43.726051230064485,46.11180128784714,62.39612373448012,68.29165533128682,3999,448,10,1,180
43.726051230064485,46.11135640961963,62.39612373448012,68.29165533128682,3999,448,10,1,181
43.72703469585131,46.11135640961963,62.39612373448012,68.29165533128682,3999,448,10,1,182
43.72703469585131,46.11259921225444,62.39612373448012,68.29165533128682,3999,448,10,1,183
43.72703469585131,46.11259921225444,62.40039105493825,68.29168327943896,3999,320,10,2,185
43.72703469585131,46.11259921225444,62.40039105493825,68.29165533128682,3999,320,10,2,186
43.72703469585131,46.11259921225444,62.40039105493825,68.29099879741415,3999,320,10,2,187
43.72703469585131,46.11259921225444,62.39997862904865,68.2872096215692,3999,320,10,2,188
43.72703469585131,46.11259921225444,62.39612373448012,68.2872096215692,3999,320,10,2,189
43.72703469585131,46.11259921225444,62.39612373448012,68.2872096215692,3999,320,10,2,190
43.72703469585131,46.11259921225444,62.39612373448012,68.2909712700098,3999,448,10,2,191
43.72703469585131,46.11259921225444,62.40060406526239,68.29099879741415,3999,448,10,2,192
43.72703469585131,46.11259921225444,62.40060406526239,68.29168327943896,3999,448,10,2,193
43.72703469585131,46.11259921225444,62.40060406526239,68.29168327943896,3999,448,10,2,194
43.72703469585131,46.11259921225444,62.40060406526239,68.29168327943896,3999,448,10,2,195
43.72703469585131,46.11259921225444,62.40060406526239,68.29168327943896,3999,256,10,2,196
43.72703469585131,46.11259921225444,62.39653543901634,68.29168327943896,3999,256,10,2,197
43.72703469585131,46.11259921225444,62.40060406526239,68.29168327943896,3999,256,10,2,198
43.72703469585131,46.11259921225444,62.39653543901634,68.2872096215692,3999,256,10,2,199
43.72703469585131,46.11259921225444,62.39612373448012,68.2872096215692,3999,256,10,2,200
43.72703469585131,46.11259921225444,62.39612373448012,68.2872096215692,3999,320,10,2,201
43.72703469585131,46.11259921225444,62.39612373448012,68.29099879741415,3999,320,10,2,202
43.72703469585131,46.11259921225444,62.39612373448012,68.29099879741415,3999,320,10,2,203
43.72703469585131,46.11259921225444,62.39566833181335,68.28649756549413,3999,320,10,2,204
43.72703469585131,46.11259921225444,62.39566833181335,68.28649756549413,3999,192,10,2,205
43.72703469585131,46.11259921225444,62.39612373448012,68.2872096215692,3999,192,10,2,206
43.72703469585131,46.11259921225444,62.39612373448012,68.2872096215692,3999,192,10,2,207
43.72703469585131,46.11259921225444,62.39612373448012,68.2872096215692,3999,192,10,2,208
43.72703469585131,46.11259921225444,62.40056038454908,68.29165533128682,3999,256,10,2,209
43.72703469585131,46.11259921225444,62.40056038454908,68.29168327943896,3999,256,10,2,210
43.72703469585131,46.11259921225444,62.39612373448012,68.29165533128682,3999,256,10,2,211
43.72703469585131,46.11259921225444,62.39612373448012,68.29168327943896,3999,256,10,2,212
43.72703469585131,46.11259921225444,62.39591032886026,68.29168327943896,3999,256,10,2,213
43.72703469585131,46.11259921225444,62.40039105493825,68.29189970629784,3999,256,10,2,214
43.72703469585131,46.11259921225444,62.40039105493825,68.29258388511434,3999,256,10,2,215
43.72703469585131,46.11259921225444,62.40060406526239,68.29258388511434,3999,256,10,2,216
43.72703469585131,46.11259921225444,62.40060406526239,68.29168327943896,3999,256,10,2,217
43.72703469585131,46.11259921225444,62.40060406526239,68.29168327943896,3999,256,10,2,218
43.72703469585131,46.11259921225444,62.39612373448012,68.2872096215692,3999,256,10,2,219
43.72703469585131,46.11259921225444,62.39612373448012,68.29168327943896,3999,448,10,2,220
43.72703469585131,46.11259921225444,62.39612373448012,68.29168327943896,3999,448,10,2,221
43.72703469585131,46.11259921225444,62.40056038454908,68.29168327943896,3999,448,10,2,222
43.72703469585131,46.11259921225444,62.40060406526239,68.29165533128682,3999,448,10,2,223
43.72703469585131,46.11259921225444,62.40056038454908,68.2872096215692,3999,448,10,2,224
43.72703469585131,46.11259921225444,62.39612373448012,68.2872096215692,3999,256,10,2,225
43.72703469585131,46.11259921225444,62.39612373448012,68.2872096215692,3999,256,10,2,226
43.72703469585131,46.11259921225444,62.39612373448012,68.2872096215692,3999,256,10,2,227
43.72703469585131,46.11259921225444,62.39612373448012,68.2872096215692,3999,256,10,2,228
43.72703469585131,46.11259921225444,62.399935332969704,68.2909712700098,3999,256,10,2,229
43.72703469585131,46.11259921225444,62.399935332969704,68.2909712700098,3999,256,10,2,230
43.72703469585131,46.11259921225444,62.399935332969704,68.2909712700098,3999,256,10,2,231
43.72703469585131,46.11259921225444,62.39545495416884,68.2909712700098,3999,256,10,2,232
43.72703469585131,46.11259921225444,62.39545495416884,68.28649756549413,3999,256,10,2,233
43.72703469585131,46.11259921225444,62.39545495416884,68.28649756549413,3999,256,10,2,234
43.72703469585131,46.11259921225444,62.39612373448012,68.2872096215692,3999,256,10,2,235
43.72703469585131,46.11259921225444,62.39612373448012,68.2872096215692,3999,256,10,2,236
43.72703469585131,46.11259921225444,62.394999652415734,68.28556962308325,3999,256,10,2,237
43.72703469585131,46.11259921225444,62.394999652415734,68.28556962308325,3999,256,10,2,238
43.72703469585131,46.11259921225444,62.39549834317237,68.2865251843835,3999,256,10,2,239
43.72703469585131,46.11259921225444,62.39612373448012,68.2872096215692,3999,256,10,2,240
43.72703469585131,46.11259921225444,62.39612373448012,68.2872096215692,3999,384,10,2,241
43.72703469585131,46.11259921225444,62.39612373448012,68.2872096215692,3999,384,10,2,242
43.72703469585131,46.11259921225444,62.39566833181335,68.2872096215692,3999,384,10,2,243
43.72703469585131,46.11259921225444,62.39612373448012,68.2872096215692,3999,384,10,2,244
43.72703469585131,46.11259921225444,62.39612373448012,68.29075488763458,3999,384,10,2,245
43.72703469585131,46.11259921225444,62.40060406526239,68.29168327943896,3999,384,10,2,246
43.72703469585131,46.11259921225444,62.40060406526239,68.29168327943896,3999,384,10,2,247
43.72703469585131,46.11259921225444,62.399935332969704,68.2909712700098,3999,384,10,2,248
43.72703469585131,46.11259921225444,62.39612373448012,68.2872096215692,3999,384,10,2,249
43.72703469585131,46.11259921225444,62.39612373448012,68.2872096215692,3999,384,10,2,250
43.72703469585131,46.11259921225444,62.39612373448012,68.2872096215692,3999,320,10,2,251
43.72703469585131,46.11259921225444,62.39612373448012,68.2872096215692,3999,320,10,2,252
43.72703469585131,46.11259921225444,62.39612373448012,68.2872096215692,3999,320,10,2,253
43.72703469585131,46.11259921225444,62.39612373448012,68.2872096215692,3999,320,10,2,254
43.72703469585131,46.11259921225444,62.394999652415734,68.28556962308325,3999,128,10,2,255
43.72703469585131,46.11259921225444,62.394999652415734,68.28556962308325,3999,128,10,2,0
43.72703469585131,46.11259921225444,62.39612373448012,68.2872096215692,3999,128,10,2,1
43.72703469585131,46.11259921225444,62.39612373448012,68.2872096215692,3999,128,10,2,2
43.72703469585131,46.11259921225444,62.39566833181335,68.28628157619423,3999,384,10,2,3
43.72703469585131,46.11259921225444,62.39566833181335,68.28628157619423,3999,448,10,2,4
43.72703469585131,46.11259921225444,62.394999652415734,68.28628157619423,3999,448,10,2,5
43.72703469585131,46.11259921225444,62.39612373448012,68.29168327943896,3999,448,10,2,6
43.72703469585131,46.11259921225444,62.40060406526239,68.29168327943896,3999,448,10,2,7
43.72703469585131,46.11259921225444,62.40060406526239,68.29168327943896,3999,448,10,2,8
43.72703469585131,46.11259921225444,62.399935332969704,68.2909712700098,3999,384,10,2,9
43.72703469585131,46.11259921225444,62.39612373448012,68.2872096215692,3999,384,10,2,10
43.72703469585131,46.11259921225444,62.39612373448012,68.2872096215692,3999,384,10,2,11
43.72703469585131,46.11259921225444,62.39612373448012,68.2872096215692,3999,384,10,2,12
43.72703469585131,46.11259921225444,62.40060406526239,68.2872096215692,3999,384,10,2,13
43.72703469585131,46.11259921225444,62.40060406526239,68.2872096215692,3999,384,10,2,14
43.72703469585131,46.11259921225444,62.399935332969704,68.2872096215692,3999,256,10,2,15
43.72703469585131,46.11259921225444,62.39612373448012,68.2872096215692,3999,256,10,2,16
43.72703469585131,46.11259921225444,62.39545495416884,68.28649756549413,3999,256,10,2,17
43.72703469585131,46.11259921225444,62.39545495416884,68.28628157619423,3999,256,10,2,18
43.72703469585131,46.11259921225444,62.39566833181335,68.28628157619423,3999,256,10,2,19
43.72703469585131,46.11259921225444,62.39566833181335,68.29075488763458,3999,448,10,2,20
43.72703469585131,46.11259921225444,62.39612373448012,68.29075488763458,3999,448,10,2,21
43.72703469585131,46.11259921225444,62.39545495416884,68.29075488763458,3999,448,10,2,22
43.72703469585131,46.11259921225444,62.39612373448012,68.2872096215692,3999,448,10,2,23
43.72703469585131,46.11259921225444,62.39612373448012,68.2872096215692,3999,448,10,2,24
43.72703469585131,46.11259921225444,62.39612373448012,68.2872096215692,3999,256,10,2,25
43.72703469585131,46.11259921225444,62.39612373448012,68.2872096215692,3999,256,10,2,26
43.72703469585131,46.11259921225444,62.39612373448012,68.2872096215692,3999,256,10,2,27
43.72703469585131,46.11259921225444,62.39612373448012,68.2872096215692,3999,256,10,1,29
43.72541684540382,45.71123135685388,62.39612373448012,68.2872096215692,3999,256,10,1,30
43.72541684540382,45.71078864192476,62.39612373448012,68.2872096215692,3999,256,10,1,31
43.72562936911731,45.71078864192476,62.39612373448012,68.2872096215692,3999,384,10,1,32
43.72562936911731,45.71078864192476,62.39612373448012,68.2872096215692,3999,384,10,1,33
43.72562936911731,45.71078864192476,62.39612373448012,68.2872096215692,3999,384,10,1,34
43.72874450184863,45.714705450360036,62.39612373448012,68.2872096215692,3999,384,10,1,35
43.72874450184863,45.714705450360036,62.39612373448012,68.2872096215692,3999,384,10,1,36
43.72874450184863,45.714705450360036,62.39612373448012,68.2872096215692,3999,384,10,1,37
43.72874450184863,45.714705450360036,62.39612373448012,68.2872096215692,3999,384,10,1,38
43.72541970420588,45.714705450360036,62.39612373448012,68.2872096215692,3999,384,10,1,39
43.72541970420588,45.71122965551039,62.39612373448012,68.2872096215692,3999,320,10,1,40
43.72541970420588,45.714705450360036,62.39612373448012,68.2872096215692,3999,320,10,1,41
43.72562936911731,45.71122965551039,62.39612373448012,68.2872096215692,3999,320,10,1,42
43.72562936911731,45.71122965551039,62.39612373448012,68.2872096215692,3999,320,10,1,43
43.72562936911731,45.71122965551039,62.39612373448012,68.2872096215692,3999,320,10,1,44
43.72541970420588,45.71122965551039,62.39612373448012,68.2872096215692,3999,256,10,1,45
43.72541970420588,45.71122965551039,62.39612373448012,68.2872096215692,3999,256,10,1,46
43.72541970420588,45.71122965551039,62.39612373448012,68.2872096215692,3999,256,10,1,47
43.72541970420588,45.71122965551039,62.39612373448012,68.2872096215692,3999,256,10,1,48
43.72541970420588,45.714264336166224,62.39612373448012,68.2872096215692,3999,256,10,1,49
43.726051230064485,45.714705450360036,62.39612373448012,68.2872096215692,3999,384,10,1,50
43.72874450184863,45.714705450360036,62.39612373448012,68.2872096215692,3999,384,10,1,51
43.72874450184863,45.714705450360036,62.39612373448012,68.2872096215692,3999,384,10,1,52
43.72874450184863,45.714705450360036,62.39612373448012,68.2872096215692,3999,384,10,1,53
43.72562936911731,45.71078864192476,62.39612373448012,68.2872096215692,3999,384,10,1,54
43.72562936911731,45.71078864192476,62.39612373448012,68.2872096215692,3999,448,10,1,55
43.726051230064485,45.71122965551039,62.39612373448012,68.2872096215692,3999,448,10,1,56
43.726051230064485,45.715533190270826,62.39612373448012,68.2872096215692,3999,448,10,1,57
43.726051230064485,45.714264336166224,62.39612373448012,68.2872096215692,3999,448,10,1,58
43.72584131442229,45.7153118794653,62.39612373448012,68.2872096215692,3999,448,10,1,59
43.728322550756815,45.71492695140302,62.39612373448012,68.2872096215692,3999,448,10,1,60
43.726051230064485,45.7153118794653,62.39612373448012,68.2872096215692,3999,448,10,1,61
43.726051230064485,45.71492695140302,62.39612373448012,68.2872096215692,3999,448,10,1,62
43.72562936911731,45.71509213516547,62.39612373448012,68.2872096215692,3999,448,10,1,63
43.72562936911731,45.714705450360036,62.39612373448012,68.2872096215692,3999,192,10,1,64
43.726051230064485,45.714705450360036,62.39612373448012,68.2872096215692,3999,192,10,1,65
43.72874450184863,45.714264336166224,62.39612373448012,68.2872096215692,3999,192,10,1,66
43.726051230064485,45.71122965551039,62.39612373448012,68.2872096215692,3999,192,10,1,67
43.72562936911731,45.71078864192476,62.39612373448012,68.2872096215692,3999,192,10,1,68
43.72562936911731,45.71078864192476,62.39612373448012,68.2872096215692,3999,192,10,1,69
43.72562936911731,45.714705450360036,62.39612373448012,68.2872096215692,3999,192,10,1,70
43.729376075727274,45.71509213516547,62.39612373448012,68.2872096215692,3999,0,10,1,71
43.726051230064485,45.715533190270826,62.39612373448012,68.2872096215692,3999,0,10,1,72
43.72895411854121,45.715533190270826,62.39612373448012,68.2872096215692,3999,256,10,1,73
43.72874450184863,45.714705450360036,62.39612373448012,68.2872096215692,3999,256,10,1,74
43.72895411854121,45.714264336166224,62.39612373448012,68.2872096215692,3999,320,10,1,75
43.72895411854121,45.714264336166224,62.39612373448012,68.2872096215692,3999,320,10,1,76
43.72895411854121,45.714264336166224,62.39612373448012,68.2872096215692,3999,320,10,1,77
43.72895411854121,45.714705450360036,62.39612373448012,68.2872096215692,3999,320,10,1,78
43.72562936911731,45.714705450360036,62.39612373448012,68.2872096215692,3999,320,10,1,79
43.72562936911731,45.714705450360036,62.39612373448012,68.2872096215692,3999,320,10,1,80
43.726051230064485,45.714264336166224,62.39612373448012,68.2872096215692,3999,320,10,1,81
43.72874450184863,45.714705450360036,62.39612373448012,68.2872096215692,3999,320,10,1,82
43.726051230064485,45.712279090092956,62.39612373448012,68.2872096215692,3999,320,10,1,83
43.72562936911731,45.712279090092956,62.39612373448012,68.2872096215692,3999,320,10,1,84
43.72562936911731,45.712279090092956,62.39612373448012,68.2872096215692,3999,448,10,1,85
43.72895411854121,45.714264336166224,62.39612373448012,68.2872096215692,3999,448,10,1,86
43.72895411854121,45.714264336166224,62.39612373448012,68.2872096215692,3999,448,10,1,87
43.72541970420588,45.71122965551039,62.39612373448012,68.2872096215692,3999,448,10,1,88
43.72541970420588,45.71122965551039,62.39612373448012,68.2872096215692,3999,448,10,1,89
43.72562936911731,45.71078864192476,62.39612373448012,68.2872096215692,3999,448,10,1,90
43.726051230064485,45.714264336166224,62.39612373448012,68.2872096215692,3999,448,10,1,91
43.72874450184863,45.714264336166224,62.39612373448012,68.2872096215692,3999,448,10,1,92
43.72874450184863,45.714264336166224,62.39612373448012,68.2872096215692,3999,448,10,1,93
43.72562936911731,45.71122965551039,62.39612373448012,68.2872096215692,3999,448,10,1,94
43.72562936911731,45.71122965551039,62.39612373448012,68.2872096215692,3999,384,10,1,95
43.72562936911731,45.71078864192476,62.39612373448012,68.2872096215692,3999,384,10,1,96
43.72562936911731,45.71122965551039,62.39612373448012,68.2872096215692,3999,384,10,1,97
43.72541970420588,45.714705450360036,62.39612373448012,68.2872096215692,3999,384,10,1,98
43.72541970420588,45.714705450360036,62.39612373448012,68.2872096215692,3999,384,10,1,99
43.72562936911731,45.714264336166224,62.39612373448012,68.2872096215692,3999,384,10,1,100
43.72562936911731,45.71078864192476,62.39612373448012,68.2872096215692,3999,256,10,1,101
43.72562936911731,45.71078864192476,62.39612373448012,68.2872096215692,3999,256,10,1,102
43.72874450184863,45.714264336166224,62.39612373448012,68.2872096215692,3999,256,10,1,103
43.72874450184863,45.714705450360036,62.39612373448012,68.2872096215692,3999,256,10,1,104
43.726051230064485,45.714705450360036,62.39612373448012,68.2872096215692,3999,256,10,1,105
43.72562936911731,45.71078864192476,62.39612373448012,68.2872096215692,3999,320,10,1,106
43.72562936911731,45.71078864192476,62.39612373448012,68.2872096215692,3999,320,10,1,107
43.72562936911731,45.71122965551039,62.39612373448012,68.2872096215692,3999,320,10,1,108
43.72562936911731,45.7138775899053,62.39612373448012,68.2872096215692,3999,320,10,1,109
43.72562936911731,45.7138775899053,62.39612373448012,68.2872096215692,3999,320,10,1,110
43.72562936911731,45.7138775899053,62.39612373448012,68.2872096215692,3999,320,10,1,111
43.72562936911731,45.714264336166224,62.39612373448012,68.2872096215692,3999,320,10,1,112
43.726051230064485,45.714264336166224,62.39612373448012,68.2872096215692,3999,320,10,1,113
43.726051230064485,45.71122965551039,62.39612373448012,68.2872096215692,3999,320,10,1,114
43.72562936911731,45.71122965551039,62.39612373448012,68.2872096215692,3999,64,10,1,115
43.72541970420588,45.71122965551039,62.39612373448012,68.2872096215692,3999,64,10,1,116
43.72541970420588,45.71122965551039,62.39612373448012,68.2872096215692,3999,64,10,1,117
43.726051230064485,45.71122965551039,62.39612373448012,68.2872096215692,3999,64,10,1,118
43.726051230064485,45.71122965551039,62.39612373448012,68.2872096215692,3999,256,10,1,119
43.7244359836639,45.71122965551039,62.39612373448012,68.2872096215692,3999,256,10,1,120
43.7244359836639,45.71122965551039,62.39612373448012,68.2872096215692,3999,256,10,1,121
43.72541970420588,45.71122965551039,62.39612373448012,68.2872096215692,3999,256,10,1,122
43.72541970420588,45.71122965551039,62.39612373448012,68.2872096215692,3999,256,10,1,123
43.72541970420588,45.71122965551039,62.39612373448012,68.2872096215692,3999,256,10,1,124
43.72541970420588,45.71122965551039,62.39612373448012,68.2872096215692,3999,320,10,1,125
43.72541970420588,45.71122965551039,62.39612373448012,68.2872096215692,3999,320,10,1,126
43.72541970420588,45.71509213516547,62.39612373448012,68.2872096215692,3999,320,10,1,127
43.72541970420588,45.71509213516547,62.39612373448012,68.2872096215692,3999,320,10,2,129
43.72541970420588,45.71509213516547,63.90199559717802,14.841065456253029,3999,320,10,2,130
43.72541970420588,45.71509213516547,63.90199559717802,14.838613819187533,3999,256,10,2,131
43.72541970420588,45.71509213516547,63.90199559717802,14.837985180899043,3999,256,10,2,132
43.72541970420588,45.71509213516547,63.90199559717802,14.837985180899043,3999,256,10,2,133
43.72541970420588,45.71509213516547,63.90199559717802,14.841065456253029,3999,256,10,2,134
43.72541970420588,45.71509213516547,63.90199559717802,14.841065456253029,3999,256,10,2,135
43.72541970420588,45.71509213516547,63.90199559717802,14.841065456253029,3999,256,10,2,136
43.72541970420588,45.71509213516547,63.90252911957746,14.842787854308746,3999,256,10,2,137
43.72541970420588,45.71509213516547,63.90252911957746,14.842787854308746,3999,256,10,2,138
43.72541970420588,45.71509213516547,63.90199559717802,14.841832526158974,3999,256,10,2,139
43.72541970420588,45.71509213516547,63.901981590529026,14.841065456253029,3999,320,10,2,140
43.72541970420588,45.71509213516547,63.90138460818763,14.841065456253029,3999,320,10,2,141
43.72541970420588,45.71509213516547,63.90138460818763,14.841065456253029,3999,320,10,2,142
43.72541970420588,45.71509213516547,63.901918045613144,14.842787854308746,3999,320,10,2,143
43.72541970420588,45.71509213516547,63.90199559717802,14.842787854308746,3999,320,10,2,144
43.72541970420588,45.71509213516547,63.90199559717802,14.842787854308746,3999,448,10,2,145
43.72541970420588,45.71509213516547,63.90199559717802,14.841693871430095,3999,448,10,2,146
43.72541970420588,45.71509213516547,63.89835242473789,14.841693871430095,3999,448,10,2,147
43.72541970420588,45.71509213516547,63.89835242473789,14.8412041051111,3999,448,10,2,148
43.72541970420588,45.71509213516547,63.89835242473789,14.837985180899043,3999,448,10,2,149
43.72541970420588,45.71509213516547,63.901981590529026,14.8412041051111,3999,448,10,2,150
43.72541970420588,45.71509213516547,63.90199559717802,14.841693871430095,3999,320,10,2,151
43.72541970420588,45.71509213516547,63.90199559717802,14.842159392811128,3999,320,10,2,152
43.72541970420588,45.71509213516547,63.901918045613144,14.841693871430095,3999,320,10,2,153
43.72541970420588,45.71509213516547,63.90138460818763,14.841555138667557,3999,320,10,2,154
43.72541970420588,45.71509213516547,63.90138460818763,14.841065456253029,3999,320,10,2,155
43.72541970420588,45.71509213516547,63.90138460818763,14.841555138667557,3999,384,10,2,156
43.72541970420588,45.71509213516547,63.90138460818763,14.841065456253029,3999,384,10,2,157
43.72541970420588,45.71509213516547,63.90251512095053,14.842159392811128,3999,384,10,2,158
43.72541970420588,45.71509213516547,63.90199559717802,14.841065456253029,3999,384,10,2,159
43.72541970420588,45.71509213516547,63.90251512095053,14.842787854308746,3999,384,10,2,160
43.72541970420588,45.71509213516547,63.90199559717802,14.842787854308746,3999,320,10,2,161
43.72541970420588,45.71509213516547,63.90252911957746,14.842787854308746,3999,320,10,2,162
43.72541970420588,45.71509213516547,63.901918045613144,14.842787854308746,3999,320,10,2,163
43.72541970420588,45.71509213516547,63.901918045613144,14.842787854308746,3999,320,10,2,164
43.72541970420588,45.71509213516547,63.901918045613144,14.842787854308746,3999,320,10,2,165
43.72541970420588,45.71509213516547,63.901981590529026,14.842787854308746,3999,448,10,2,166
43.72541970420588,45.71509213516547,63.901981590529026,14.842159392811128,3999,448,10,2,167
43.72541970420588,45.71509213516547,63.901918045613144,14.841693871430095,3999,448,10,2,168
43.72541970420588,45.71509213516547,63.901918045613144,14.841693871430095,3999,448,10,2,169
43.72541970420588,45.71509213516547,63.901918045613144,14.841693871430095,3999,192,10,2,170
43.72541970420588,45.71509213516547,63.90199559717802,14.842787854308746,3999,128,10,2,171
43.72541970420588,45.71509213516547,63.90609478623664,14.842787854308746,3999,128,10,2,172
43.72541970420588,45.71509213516547,63.90609478623664,14.842787854308746,3999,128,10,2,173
43.72541970420588,45.71509213516547,63.90251512095053,14.842787854308746,3999,128,10,2,174
43.72541970420588,45.71509213516547,63.90251512095053,14.842298072331214,3999,128,10,2,175
43.72541970420588,45.71509213516547,63.90251512095053,14.842298072331214,3999,0,10,2,176
43.72541970420588,45.71509213516547,63.901918045613144,14.842298072331214,3999,0,10,2,177
43.72541970420588,45.71509213516547,63.901918045613144,14.842159392811128,3999,0,10,2,178
43.72541970420588,45.71509213516547,63.901918045613144,14.842159392811128,3999,256,10,2,179
43.72541970420588,45.71509213516547,63.901981590529026,14.842159392811128,3999,320,10,2,180
43.72541970420588,45.71509213516547,63.90252911957746,14.842787854308746,3999,320,10,2,181
43.72541970420588,45.71509213516547,63.90252911957746,14.842787854308746,3999,320,10,2,182
43.72541970420588,45.71509213516547,63.90199559717802,14.841693871430095,3999,320,10,2,183
43.72541970420588,45.71509213516547,63.90199559717802,14.841693871430095,3999,320,10,2,184
43.72541970420588,45.71509213516547,63.90199559717802,14.841693871430095,3999,384,10,2,185
43.72541970420588,45.71509213516547,63.90199559717802,14.841693871430095,3999,384,10,2,186
43.72541970420588,45.71509213516547,63.90670582026311,14.842787854308746,3999,384,10,2,187
43.72541970420588,45.71509213516547,63.90670582026311,14.842787854308746,3999,384,10,2,188
43.72541970420588,45.71509213516547,63.90609478623664,14.842787854308746,3999,384,10,2,189
43.72541970420588,45.71509213516547,63.90251512095053,14.842298072331214,3999,384,10,2,190
43.72541970420588,45.71509213516547,63.90251512095053,14.842298072331214,3999,320,10,2,191
43.72541970420588,45.71509213516547,63.90251512095053,14.842298072331214,3999,320,10,2,192
43.72541970420588,45.71509213516547,63.90609478623664,14.842159392811128,3999,320,10,2,193
43.72541970420588,45.71509213516547,63.90199559717802,14.841693871430095,3999,320,10,2,194
43.72541970420588,45.71509213516547,63.90609478623664,14.842159392811128,3999,320,10,2,195
43.72541970420588,45.71509213516547,63.90252911957746,14.842159392811128,3999,320,10,2,196
43.72541970420588,45.71509213516547,63.90252911957746,14.842159392811128,3999,320,10,2,197
43.72541970420588,45.71509213516547,63.90252911957746,14.841693871430095,3999,320,10,2,198
43.72541970420588,45.71509213516547,63.90138460818763,14.841693871430095,3999,320,10,2,199
43.72541970420588,45.71509213516547,63.90199559717802,14.841693871430095,3999,320,10,2,200
43.72541970420588,45.71509213516547,63.90190431427778,14.841693871430095,3999,384,10,2,201
43.72541970420588,45.71509213516547,63.90199559717802,14.842298072331214,3999,384,10,2,202
43.72541970420588,45.71509213516547,63.90252911957746,14.842787854308746,3999,384,10,2,203
43.72541970420588,45.71509213516547,63.90252911957746,14.842787854308746,3999,384,10,2,204
43.72541970420588,45.71509213516547,63.90252911957746,14.841065456253029,3999,384,10,2,205
43.72541970420588,45.71509213516547,63.90199559717802,14.841065456253029,3999,448,10,2,206
43.72541970420588,45.71509213516547,63.90199559717802,14.837985180899043,3999,448,10,2,207
43.72541970420588,45.71509213516547,63.901918045613144,14.841065456253029,3999,448,10,2,208
43.72541970420588,45.71509213516547,63.901918045613144,14.841693871430095,3999,448,10,2,209
43.72541970420588,45.71509213516547,63.901918045613144,14.841693871430095,3999,448,10,2,210
43.72541970420588,45.71509213516547,63.90199559717802,14.842787854308746,3999,256,10,2,211
43.72541970420588,45.71509213516547,63.90199559717802,14.842787854308746,3999,256,10,2,212
43.72541970420588,45.71509213516547,63.90199559717802,14.841832526158974,3999,256,10,2,213
43.72541970420588,45.71509213516547,63.90199559717802,14.841832526158974,3999,256,10,2,214
43.72541970420588,45.71509213516547,63.90252911957746,14.842159392811128,3999,256,10,2,215
43.72541970420588,45.71509213516547,63.90609478623664,14.842159392811128,3999,256,10,2,216
43.72541970420588,45.71509213516547,63.90252911957746,14.842787854308746,3999,256,10,2,217
43.72541970420588,45.71509213516547,63.90252911957746,14.842159392811128,3999,256,10,2,218
43.72541970420588,45.71509213516547,63.90199559717802,14.841065456253029,3999,256,10,2,219
43.72541970420588,45.71509213516547,63.90199559717802,14.841065456253029,3999,0,10,2,220
43.72541970420588,45.71509213516547,63.90251512095053,14.839078969736775,3999,0,10,2,221
43.72541970420588,45.71509213516547,63.9030627208987,14.839078969736775,3999,64,10,2,222
43.72541970420588,45.71509213516547,63.9030627208987,14.839078969736775,3999,64,10,2,223
43.72541970420588,45.71509213516547,63.901918045613144,14.841065456253029,3999,256,10,2,224
43.72541970420588,45.71509213516547,63.901918045613144,14.841065456253029,3999,256,10,2,225
43.72541970420588,45.71509213516547,63.901918045613144,14.841065456253029,3999,256,10,2,226
43.72541970420588,45.71509213516547,63.90199559717802,14.837985180899043,3999,256,10,2,227
43.72541970420588,45.71509213516547,63.90199559717802,14.837985180899043,3999,256,10,1,229
43.72562936911731,45.71078864192476,63.90199559717802,14.837985180899043,3999,256,10,1,230
43.72562936911731,45.71078864192476,63.90199559717802,14.837985180899043,3999,256,10,1,231
43.72562936911731,45.71078864192476,63.90199559717802,14.837985180899043,3999,448,10,1,232
43.726051230064485,45.71122965551039,63.90199559717802,14.837985180899043,3999,448,10,1,233
43.72562936911731,45.71078864192476,63.90199559717802,14.837985180899043,3999,448,10,1,234
43.72895411854121,45.71122965551039,63.90199559717802,14.837985180899043,3999,448,10,1,235
43.72895411854121,45.71122965551039,63.90199559717802,14.837985180899043,3999,448,10,1,236
43.72895411854121,45.71122965551039,63.90199559717802,14.837985180899043,3999,448,10,1,237
43.72541970420588,45.714264336166224,63.90199559717802,14.837985180899043,3999,448,10,1,238
43.72541970420588,45.71122965551039,63.90199559717802,14.837985180899043,3999,448,10,1,239
43.72541970420588,45.71122965551039,63.90199559717802,14.837985180899043,3999,448,10,1,240
43.72562936911731,45.71122965551039,63.90199559717802,14.837985180899043,3999,384,10,1,241
43.726051230064485,45.71122965551039,63.90199559717802,14.837985180899043,3999,384,10,1,242
43.726051230064485,45.71122965551039,63.90199559717802,14.837985180899043,3999,384,10,1,243
43.72562936911731,45.71122965551039,63.90199559717802,14.837985180899043,3999,384,10,1,244
43.72562936911731,45.71122965551039,63.90199559717802,14.837985180899043,3999,384,10,1,245
43.72562936911731,45.71122965551039,63.90199559717802,14.837985180899043,3999,448,10,1,246
43.726051230064485,45.71122965551039,63.90199559717802,14.837985180899043,3999,448,10,1,247
43.726051230064485,45.71122965551039,63.90199559717802,14.837985180899043,3999,448,10,1,248
43.726051230064485,45.71122965551039,63.90199559717802,14.837985180899043,3999,448,10,1,249
43.726051230064485,45.71122965551039,63.90199559717802,14.837985180899043,3999,448,10,1,250
43.726051230064485,45.71122965551039,63.90199559717802,14.837985180899043,3999,320,10,1,251
43.726051230064485,45.71122965551039,63.90199559717802,14.837985180899043,3999,320,10,1,252
43.726051230064485,45.71122965551039,63.90199559717802,14.837985180899043,3999,320,10,1,253
43.726051230064485,45.71122965551039,63.90199559717802,14.837985180899043,3999,320,10,1,254
43.726051230064485,45.714264336166224,63.90199559717802,14.837985180899043,3999,320,10,1,255
43.72562936911731,45.71078864192476,63.90199559717802,14.837985180899043,3999,384,10,1,0
43.726051230064485,45.71122965551039,63.90199559717802,14.837985180899043,3999,384,10,1,1
43.726051230064485,45.71122965551039,63.90199559717802,14.837985180899043,3999,384,10,1,2
43.726051230064485,45.71122965551039,63.90199559717802,14.837985180899043,3999,384,10,1,3
43.72874450184863,45.714264336166224,63.90199559717802,14.837985180899043,3999,384,10,1,4
43.72895411854121,45.714264336166224,63.90199559717802,14.837985180899043,3999,320,10,1,5
43.72895411854121,45.71509213516547,63.90199559717802,14.837985180899043,3999,320,10,1,6
43.726051230064485,45.715533190270826,63.90199559717802,14.837985180899043,3999,320,10,1,7
43.726051230064485,45.71509213516547,63.90199559717802,14.837985180899043,3999,320,10,1,8
43.726051230064485,45.714705450360036,63.90199559717802,14.837985180899043,3999,320,10,1,9
43.726051230064485,45.71145120678236,63.90199559717802,14.837985180899043,3999,320,10,1,10
43.726051230064485,45.71145120678236,63.90199559717802,14.837985180899043,3999,320,10,1,11
43.72895411854121,45.714264336166224,63.90199559717802,14.837985180899043,3999,320,10,1,12
43.72895411854121,45.714264336166224,63.90199559717802,14.837985180899043,3999,320,10,1,13
43.72562936911731,45.71078864192476,63.90199559717802,14.837985180899043,3999,320,10,1,14
43.72562936911731,45.71078864192476,63.90199559717802,14.837985180899043,3999,320,10,1,15
43.72562936911731,45.71122965551039,63.90199559717802,14.837985180899043,3999,320,10,1,16
43.726051230064485,45.71122965551039,63.90199559717802,14.837985180899043,3999,320,10,1,17
43.726051230064485,45.71122965551039,63.90199559717802,14.837985180899043,3999,320,10,1,18
43.726051230064485,45.71122965551039,63.90199559717802,14.837985180899043,3999,320,10,1,19
43.72895411854121,45.71492695140302,63.90199559717802,14.837985180899043,3999,128,10,1,20
43.72895411854121,45.71492695140302,63.90199559717802,14.837985180899043,3999,128,10,1,21
43.72874450184863,45.714705450360036,63.90199559717802,14.837985180899043,3999,128,10,1,22
43.726051230064485,45.71122965551039,63.90199559717802,14.837985180899043,3999,128,10,1,23
43.726051230064485,45.71122965551039,63.90199559717802,14.837985180899043,3999,128,10,1,24
43.72541970420588,45.71122965551039,63.90199559717802,14.837985180899043,3999,128,10,1,25
43.726051230064485,45.71122965551039,63.90199559717802,14.837985180899043,3999,192,10,1,26
43.726051230064485,45.714264336166224,63.90199559717802,14.837985180899043,3999,192,10,1,27
43.72895411854121,45.71122965551039,63.90199559717802,14.837985180899043,3999,192,10,1,28
43.72895411854121,45.714705450360036,63.90199559717802,14.837985180899043,3999,384,10,1,29
43.726051230064485,45.71122965551039,63.90199559717802,14.837985180899043,3999,384,10,1,30
43.726051230064485,45.714705450360036,63.90199559717802,14.837985180899043,3999,384,10,1,31
43.72874450184863,45.714705450360036,63.90199559717802,14.837985180899043,3999,384,10,1,32
43.72895411854121,45.714705450360036,63.90199559717802,14.837985180899043,3999,384,10,1,33
43.72874450184863,45.714264336166224,63.90199559717802,14.837985180899043,3999,384,10,1,34
43.72874450184863,45.714264336166224,63.90199559717802,14.837985180899043,3999,384,10,1,35
43.72874450184863,45.714705450360036,63.90199559717802,14.837985180899043,3999,384,10,1,36
43.729376075727274,45.714705450360036,63.90199559717802,14.837985180899043,3999,384,10,1,37
43.729376075727274,45.714705450360036,63.90199559717802,14.837985180899043,3999,384,10,1,38
43.729376075727274,45.714705450360036,63.90199559717802,14.837985180899043,3999,384,10,1,39
43.729376075727274,45.714705450360036,63.90199559717802,14.837985180899043,3999,256,10,1,40
43.729376075727274,45.714705450360036,63.90199559717802,14.837985180899043,3999,256,10,1,41
43.72895411854121,45.714264336166224,63.90199559717802,14.837985180899043,3999,256,10,1,42
43.726051230064485,45.71122965551039,63.90199559717802,14.837985180899043,3999,256,10,1,43
43.726051230064485,45.71122965551039,63.90199559717802,14.837985180899043,3999,256,10,1,44
43.72562936911731,45.71122965551039,63.90199559717802,14.837985180899043,3999,256,10,1,45
43.72562936911731,45.71122965551039,63.90199559717802,14.837985180899043,3999,256,10,1,46
43.72541970420588,45.71122965551039,63.90199559717802,14.837985180899043,3999,256,10,1,47
43.72895411854121,45.714264336166224,63.90199559717802,14.837985180899043,3999,256,10,1,48
43.72562936911731,45.71122965551039,63.90199559717802,14.837985180899043,3999,256,10,1,49
43.726051230064485,45.71122965551039,63.90199559717802,14.837985180899043,3999,256,10,1,50
43.72562936911731,45.71078864192476,63.90199559717802,14.837985180899043,3999,256,10,1,51
43.72562936911731,45.71122965551039,63.90199559717802,14.837985180899043,3999,256,10,1,52
43.72562936911731,45.71122965551039,63.90199559717802,14.837985180899043,3999,256,10,1,53
43.72895411854121,45.714264336166224,63.90199559717802,14.837985180899043,3999,256,10,1,54
43.72895411854121,45.714264336166224,63.90199559717802,14.837985180899043,3999,256,10,1,55
43.726051230064485,45.71122965551039,63.90199559717802,14.837985180899043,3999,320,10,1,56
43.72562936911731,45.71122965551039,63.90199559717802,14.837985180899043,3999,320,10,1,57
43.72562936911731,45.71078864192476,63.90199559717802,14.837985180899043,3999,320,10,1,58
43.72562936911731,45.71078864192476,63.90199559717802,14.837985180899043,3999,320,10,1,59
43.72562936911731,45.71122965551039,63.90199559717802,14.837985180899043,3999,320,10,1,60
43.726051230064485,45.71122965551039,63.90199559717802,14.837985180899043,3999,320,10,1,61
43.729376075727274,45.714705450360036,63.90199559717802,14.837985180899043,3999,320,10,1,62
43.729376075727274,45.714705450360036,63.90199559717802,14.837985180899043,3999,320,10,1,63
43.729376075727274,45.714705450360036,63.90199559717802,14.837985180899043,3999,320,10,1,64
43.72895411854121,45.714264336166224,63.90199559717802,14.837985180899043,3999,320,10,1,65
43.72895411854121,45.714264336166224,63.90199559717802,14.837985180899043,3999,320,10,1,66
43.72874450184863,45.714264336166224,63.90199559717802,14.837985180899043,3999,320,10,1,67
43.72895411854121,45.714264336166224,63.90199559717802,14.837985180899043,3999,320,10,1,68
43.72874450184863,45.714264336166224,63.90199559717802,14.837985180899043,3999,320,10,1,69
43.72895411854121,45.714264336166224,63.90199559717802,14.837985180899043,3999,192,10,1,70
43.72562936911731,45.714264336166224,63.90199559717802,14.837985180899043,3999,192,10,1,71
43.72562936911731,45.714264336166224,63.90199559717802,14.836891551999882,3999,192,10,2,73
43.72562936911731,45.714264336166224,62.40351683538829,13.421581122846403,3999,256,10,2,74
43.72562936911731,45.714264336166224,62.40351683538829,13.421581122846403,3999,256,10,2,75
43.72562936911731,45.714264336166224,62.40351683538829,13.421581122846403,3999,256,10,2,76
43.72562936911731,45.714264336166224,62.40412117234675,13.421581122846403,3999,256,10,2,77
43.72562936911731,45.714264336166224,62.40355198503195,13.421451068027894,3999,256,10,2,78
43.72562936911731,45.714264336166224,62.40355198503195,13.421451068027894,3999,256,10,2,79
43.72562936911731,45.714264336166224,62.40355198503195,13.421451068027894,3999,320,10,2,80
43.72562936911731,45.714264336166224,62.40355198503195,13.421581122846403,3999,320,10,2,81
43.72562936911731,45.714264336166224,62.40355198503195,13.421581122846403,3999,320,10,2,82
43.72562936911731,45.714264336166224,62.40355198503195,13.421451068027894,3999,320,10,2,83
43.72562936911731,45.714264336166224,62.40307791876628,13.421206523769087,3999,320,10,2,84
43.72562936911731,45.714264336166224,62.403113071797904,13.421206523769087,3810,256,10,2,85
43.72562936911731,45.714264336166224,62.403113071797904,13.421206523769087,3194,256,10,2,86
43.72562936911731,45.714264336166224,62.40355198503195,13.421451068027894,2470,256,10,2,87
43.72562936911731,45.714264336166224,62.40355198503195,13.421581122846403,1694,256,10,2,88
43.72562936911731,45.714264336166224,62.404156679903345,13.421581122846403,906,256,10,2,89
43.72562936911731,45.714264336166224,62.40351683538829,13.421581122846403,175,256,10,2,90
43.72562936911731,45.714264336166224,62.399193542752876,13.421581122846403,0,448,10,2,91
43.72562936911731,45.714264336166224,62.399193542752876,13.424748487748545,0,448,10,2,92
43.72562936911731,45.714264336166224,62.40307791876628,13.424878554666819,0,448,10,2,93
43.72562936911731,45.714264336166224,62.40307791876628,13.424878554666819,0,448,10,2,94
43.72562936911731,45.714264336166224,62.40351683538829,13.424878554666819,0,448,10,2,95
43.72562936911731,45.714264336166224,62.40355198503195,13.421451068027894,0,448,10,2,96
43.72562936911731,45.714264336166224,62.40355198503195,13.421451068027894,0,448,10,2,97
43.72562936911731,45.714264336166224,62.40355198503195,13.421451068027894,0,448,10,2,98
43.72562936911731,45.714264336166224,62.403113071797904,13.420556949188951,0,448,10,2,99
43.72562936911731,45.714264336166224,62.403113071797904,13.420556949188951,0,448,10,2,100
43.72562936911731,45.714264336166224,62.403113071797904,13.421206523769087,0,256,10,2,101
43.72562936911731,45.714264336166224,62.40355198503195,13.421451068027894,0,256,10,2,102
43.72562936911731,45.714264336166224,62.40355198503195,13.421451068027894,0,256,10,2,103
43.72562936911731,45.714264336166224,62.40355198503195,13.421451068027894,0,256,10,2,104
43.72562936911731,45.714264336166224,62.39939474516541,13.420556949188951,0,256,10,2,105
43.72562936911731,45.714264336166224,62.39939474516541,13.420556949188951,0,256,10,2,106
43.72562936911731,45.714264336166224,62.40371767013474,13.420556949188951,0,256,10,2,107
43.72562936911731,45.714264336166224,62.40371767013474,13.420556949188951,0,256,10,2,108
43.72562936911731,45.714264336166224,62.40371767013474,13.420556949188951,0,256,10,2,109
43.72562936911731,45.714264336166224,62.40371767013474,13.420556949188951,0,256,10,2,110
43.72562936911731,45.714264336166224,62.403113071797904,13.420556949188951,0,320,10,2,111
43.72562936911731,45.714264336166224,62.403113071797904,13.420556949188951,0,320,10,2,112
43.72562936911731,45.714264336166224,62.40355198503195,13.421451068027894,0,320,10,2,113
43.72562936911731,45.714264336166224,62.40355198503195,13.421451068027894,0,320,10,2,114
43.72562936911731,45.714264336166224,62.40371767013474,13.421581122846403,0,64,10,2,115
43.72562936911731,45.714264336166224,62.40355198503195,13.421581122846403,0,64,10,2,116
43.72562936911731,45.714264336166224,62.40355198503195,13.421581122846403,0,64,10,2,117
43.72562936911731,45.714264336166224,62.40351683538829,13.42210068588469,0,64,10,2,118
43.72562936911731,45.714264336166224,62.40351683538829,13.421581122846403,0,64,10,2,119
43.72562936911731,45.714264336166224,62.40351683538829,13.421581122846403,0,64,10,2,120
43.72562936911731,45.714264336166224,62.40371767013474,13.421581122846403,0,64,10,2,121
43.72562936911731,45.714264336166224,62.40355198503195,13.421581122846403,0,64,10,2,122
43.72562936911731,45.714264336166224,62.40371767013474,13.421581122846403,0,64,10,2,123
43.72562936911731,45.714264336166224,62.404156679903345,13.421581122846403,0,256,10,2,124
43.72562936911731,45.714264336166224,62.404156679903345,13.421581122846403,0,256,10,2,125
43.72562936911731,45.714264336166224,62.40351683538829,13.421581122846403,0,256,10,2,126
43.72562936911731,45.714264336166224,62.40351683538829,13.421581122846403,0,256,10,2,127
43.72562936911731,45.714264336166224,62.404156679903345,13.421581122846403,0,256,10,2,128
43.72562936911731,45.714264336166224,62.404156679903345,13.421581122846403,0,256,10,2,129
43.72562936911731,45.714264336166224,62.40412117234675,13.421711102019449,0,256,10,2,130
43.72562936911731,45.714264336166224,62.403113071797904,13.420556949188951,0,448,10,2,131
43.72562936911731,45.714264336166224,62.40355198503195,13.421711102019449,0,448,10,2,132
43.72562936911731,45.714264336166224,62.40355198503195,13.42210068588469,0,448,10,2,133
43.72562936911731,45.714264336166224,62.40371767013474,13.42210068588469,0,448,10,2,134
43.72562936911731,45.714264336166224,62.404156679903345,13.421581122846403,0,448,10,2,135
43.72562936911731,45.714264336166224,62.40371767013474,13.421581122846403,0,320,10,2,136
43.72562936911731,45.714264336166224,62.40355198503195,13.421581122846403,0,320,10,2,137
43.72562936911731,45.714264336166224,62.40355198503195,13.421581122846403,0,320,10,2,138
43.72562936911731,45.714264336166224,62.40355198503195,13.422230746998041,0,320,10,2,139
43.72562936911731,45.714264336166224,62.40355198503195,13.424878554666819,0,320,10,2,140
43.72562936911731,45.714264336166224,62.404156679903345,13.422230746998041,0,256,10,2,141
43.72562936911731,45.714264336166224,62.40307791876628,13.421581122846403,0,256,10,2,142
43.72562936911731,45.714264336166224,62.404156679903345,13.421581122846403,0,256,10,2,143
43.72562936911731,45.714264336166224,62.40355198503195,13.421451068027894,0,256,10,2,144
43.72562936911731,45.714264336166224,62.40355198503195,13.421581122846403,0,256,10,2,145
43.72562936911731,45.714264336166224,62.40351683538829,13.421581122846403,0,256,10,2,146
43.72562936911731,45.714264336166224,62.40351683538829,13.424878554666819,0,256,10,2,147
43.72562936911731,45.714264336166224,62.40307791876628,13.425397846942728,0,256,10,2,148
43.72562936911731,45.714264336166224,62.40355198503195,13.425397846942728,0,256,10,2,149
43.72562936911731,45.714264336166224,62.40307791876628,13.421581122846403,0,256,10,2,150
43.72562936911731,45.714264336166224,62.403113071797904,13.421581122846403,0,448,10,2,151
43.72562936911731,45.714264336166224,62.403113071797904,13.421451068027894,0,448,10,2,152
43.72562936911731,45.714264336166224,62.40355198503195,13.424748487748545,0,448,10,2,153
43.72562936911731,45.714264336166224,62.404156679903345,13.421581122846403,0,448,10,2,154
43.72562936911731,45.714264336166224,62.404156679903345,13.42590305812239,0,448,10,2,155
43.72562936911731,45.714264336166224,62.40351683538829,13.421581122846403,0,448,10,2,156
43.72562936911731,45.714264336166224,62.403113071797904,13.424748487748545,0,448,10,2,157
43.72562936911731,45.714264336166224,62.403113071797904,13.421581122846403,0,448,10,2,158
43.72562936911731,45.714264336166224,62.403113071797904,13.424748487748545,0,448,10,2,159
43.72562936911731,45.714264336166224,62.40351683538829,13.421581122846403,0,448,10,2,160
43.72562936911731,45.714264336166224,62.398754949475595,13.424878554666819,0,448,10,2,161
43.72562936911731,45.714264336166224,62.40371767013474,13.424878554666819,0,384,10,2,162
43.72562936911731,45.714264336166224,62.40307791876628,13.424878554666819,0,384,10,2,163
43.72562936911731,45.714264336166224,62.40371767013474,13.424878554666819,0,384,10,2,164
43.72562936911731,45.714264336166224,62.40307791876628,13.420556949188951,0,128,10,2,165
43.72562936911731,45.714264336166224,62.40371767013474,13.420556949188951,0,128,10,2,166
43.72562936911731,45.714264336166224,62.40355198503195,13.421451068027894,0,192,10,2,167
43.72562936911731,45.714264336166224,62.40355198503195,13.42590305812239,0,192,10,2,168
43.72562936911731,45.714264336166224,62.40355198503195,13.421581122846403,0,448,10,2,169
43.72562936911731,45.714264336166224,62.40355198503195,13.421581122846403,0,448,10,2,170
43.72562936911731,45.714264336166224,62.404156679903345,13.421581122846403,0,320,10,2,171
43.72562936911731,45.71078864192476,62.404156679903345,13.421581122846403,0,320,10,1,173
43.72562936911731,45.71078864192476,62.404156679903345,13.421581122846403,0,320,10,1,174
43.72272688588761,45.712057592491504,62.404156679903345,13.421581122846403,0,320,10,1,175
43.7244359836639,45.714705450360036,62.404156679903345,13.421581122846403,0,320,10,1,176
43.7244359836639,45.714705450360036,62.404156679903345,13.421581122846403,0,448,10,1,177
43.72562936911731,45.71509213516547,62.404156679903345,13.421581122846403,0,448,10,1,178
43.72562936911731,45.71509213516547,62.404156679903345,13.421581122846403,0,448,10,1,179
43.72562936911731,45.71492695140302,62.404156679903345,13.421581122846403,0,448,10,1,180
43.72562936911731,45.712057592491504,62.404156679903345,13.421581122846403,0,384,10,1,181
43.72895411854121,45.714705450360036,62.404156679903345,13.421581122846403,0,384,10,1,182
43.726051230064485,45.712057592491504,62.404156679903345,13.421581122846403,0,384,10,1,183
43.72895411854121,45.714264336166224,62.404156679903345,13.421581122846403,0,384,10,1,184
43.72895411854121,45.714264336166224,62.404156679903345,13.421581122846403,0,384,10,1,185
43.72895411854121,45.714264336166224,62.404156679903345,13.421581122846403,0,256,10,1,186
43.72541970420588,45.71122965551039,62.404156679903345,13.421581122846403,0,256,10,1,187
43.72541970420588,45.71122965551039,62.404156679903345,13.421581122846403,0,256,10,1,188
43.726051230064485,45.71122965551039,62.404156679903345,13.421581122846403,0,256,10,1,189
43.726051230064485,45.714705450360036,62.404156679903345,13.421581122846403,0,256,10,1,190
43.72562936911731,45.714705450360036,62.404156679903345,13.421581122846403,0,320,10,1,191
43.72562936911731,45.714264336166224,62.404156679903345,13.421581122846403,0,320,10,1,192
43.72541970420588,45.71122965551039,62.404156679903345,13.421581122846403,0,320,10,1,193
43.72541970420588,45.71122965551039,62.404156679903345,13.421581122846403,0,320,10,1,194
43.72541970420588,45.714264336166224,62.404156679903345,13.421581122846403,0,320,10,1,195
43.72541970420588,45.714264336166224,62.404156679903345,13.421581122846403,0,448,10,1,196
43.72874450184863,45.714264336166224,62.404156679903345,13.421581122846403,0,448,10,1,197
43.72874450184863,45.714705450360036,62.404156679903345,13.421581122846403,0,448,10,1,198
43.72874450184863,45.714705450360036,62.404156679903345,13.421581122846403,0,448,10,1,199
43.72541970420588,45.714705450360036,62.404156679903345,13.421581122846403,0,448,10,1,200
43.72541970420588,45.71122965551039,62.404156679903345,13.421581122846403,0,256,10,1,201
43.72562936911731,45.71122965551039,62.404156679903345,13.421581122846403,0,256,10,1,202
43.726051230064485,45.71122965551039,62.404156679903345,13.421581122846403,0,256,10,1,203
43.726051230064485,45.71122965551039,62.404156679903345,13.421581122846403,0,256,10,1,204
43.729376075727274,45.714705450360036,62.404156679903345,13.421581122846403,0,256,10,1,205
43.729376075727274,45.714705450360036,62.404156679903345,13.421581122846403,0,256,10,1,206
43.72541970420588,45.714264336166224,62.404156679903345,13.421581122846403,0,256,10,1,207
43.72541970420588,45.714264336166224,62.404156679903345,13.421581122846403,0,256,10,1,208
43.72562936911731,45.71145120678236,62.404156679903345,13.421581122846403,0,256,10,1,209
43.726051230064485,45.71145120678236,62.404156679903345,13.421581122846403,0,256,10,1,210
43.726051230064485,45.71145120678236,62.404156679903345,13.421581122846403,0,256,10,1,211
43.726051230064485,45.71122965551039,62.404156679903345,13.421581122846403,0,448,10,1,212
43.72874450184863,45.714043233920385,62.404156679903345,13.421581122846403,0,448,10,1,213
43.726051230064485,45.714043233920385,62.404156679903345,13.421581122846403,0,448,10,1,214
43.72562936911731,45.714043233920385,62.404156679903345,13.421581122846403,0,448,10,1,215
43.72562936911731,45.71122965551039,62.404156679903345,13.421581122846403,0,448,10,1,216
43.72562936911731,45.71078864192476,62.404156679903345,13.421581122846403,0,320,10,1,217
43.72562936911731,45.71122965551039,62.404156679903345,13.421581122846403,0,320,10,1,218
43.72895411854121,45.714264336166224,62.404156679903345,13.421581122846403,0,320,10,1,219
43.72895411854121,45.714705450360036,62.404156679903345,13.421581122846403,0,320,10,1,220
43.72562936911731,45.714264336166224,62.404156679903345,13.421581122846403,0,192,10,1,221
43.72562936911731,45.714705450360036,62.404156679903345,13.421581122846403,0,192,10,1,222
43.72562936911731,45.71078864192476,62.404156679903345,13.421581122846403,0,192,10,1,223
43.726051230064485,45.71122965551039,62.404156679903345,13.421581122846403,0,192,10,1,224
43.72562936911731,45.71078864192476,62.404156679903345,13.421581122846403,0,192,10,1,225
43.72562936911731,45.71078864192476,62.404156679903345,13.421581122846403,0,192,10,1,226
43.72541970420588,45.71078864192476,62.404156679903345,13.421581122846403,0,192,10,1,227
43.72541970420588,45.71122965551039,62.404156679903345,13.421581122846403,0,192,10,1,228
43.72506761977566,45.71122965551039,62.404156679903345,13.421581122846403,0,192,10,1,229
43.722305121150185,45.71122965551039,62.404156679903345,13.421581122846403,0,256,10,1,230
43.722305121150185,45.71122965551039,62.404156679903345,13.421581122846403,0,256,10,1,231
43.722305121150185,45.71122965551039,62.404156679903345,13.421581122846403,0,256,10,1,232
43.72541970420588,45.71122965551039,62.404156679903345,13.421581122846403,0,256,10,1,233
43.72895411854121,45.714705450360036,62.404156679903345,13.421581122846403,0,256,10,1,234
43.72895411854121,45.714705450360036,62.404156679903345,13.421581122846403,0,256,10,1,235
43.72562936911731,45.71122965551039,62.404156679903345,13.421581122846403,0,320,10,1,236
43.72562936911731,45.71078864192476,62.404156679903345,13.421581122846403,0,320,10,1,237
43.72562936911731,45.71078864192476,62.404156679903345,13.421581122846403,0,320,10,1,238
43.72562936911731,45.71078864192476,62.404156679903345,13.421581122846403,0,320,10,1,239
43.72562936911731,45.71122965551039,62.404156679903345,13.421581122846403,0,320,10,1,240
43.726051230064485,45.71122965551039,62.404156679903345,13.421581122846403,0,256,10,1,241
43.72541970420588,45.71122965551039,62.404156679903345,13.421581122846403,0,256,10,1,242
43.726051230064485,45.71122965551039,62.404156679903345,13.421581122846403,0,256,10,1,243
43.72562936911731,45.71122965551039,62.404156679903345,13.421581122846403,0,256,10,1,244
43.726051230064485,45.71122965551039,62.404156679903345,13.421581122846403,0,256,10,1,245
43.72874450184863,45.714705450360036,62.404156679903345,13.421581122846403,0,448,10,1,246
43.72874450184863,45.714705450360036,62.404156679903345,13.421581122846403,0,448,10,1,247
43.72874450184863,45.714705450360036,62.404156679903345,13.421581122846403,0,448,10,1,248
43.726051230064485,45.714705450360036,62.404156679903345,13.421581122846403,0,448,10,1,249
43.72562936911731,45.71122965551039,62.404156679903345,13.421581122846403,0,448,10,1,250
43.726051230064485,45.71122965551039,62.404156679903345,13.421581122846403,0,448,10,1,251
43.72562936911731,45.71078864192476,62.404156679903345,13.421581122846403,0,448,10,1,252
43.726051230064485,45.71122965551039,62.404156679903345,13.421581122846403,0,448,10,1,253
43.72562936911731,45.71122965551039,62.404156679903345,13.421581122846403,0,448,10,1,254
43.72541970420588,45.71122965551039,62.404156679903345,13.421581122846403,0,448,10,1,255
43.72541970420588,45.71122965551039,62.404156679903345,13.421581122846403,0,448,10,1,0
43.72541970420588,45.71122965551039,62.404156679903345,13.421581122846403,0,448,10,1,1
43.72562936911731,45.71122965551039,62.404156679903345,13.421581122846403,0,448,10,1,2
43.72562936911731,45.71122965551039,62.404156679903345,13.421581122846403,0,448,10,1,3
43.72562936911731,45.71078864192476,62.404156679903345,13.421581122846403,0,448,10,1,4
43.726051230064485,45.714264336166224,62.404156679903345,13.421581122846403,0,448,10,1,5
43.726051230064485,45.71122965551039,62.404156679903345,13.421581122846403,0,320,10,1,6
43.726051230064485,45.714264336166224,62.404156679903345,13.421581122846403,0,320,10,1,7
43.726051230064485,45.714705450360036,62.404156679903345,13.421581122846403,0,320,10,1,8
43.72895411854121,45.714705450360036,62.404156679903345,13.421581122846403,0,320,10,1,9
43.72895411854121,45.714264336166224,62.404156679903345,13.421581122846403,0,320,10,1,10
43.72895411854121,45.714264336166224,62.404156679903345,13.421581122846403,0,320,10,1,11
43.72541970420588,45.71122965551039,62.404156679903345,13.421581122846403,0,320,10,1,12
43.72541970420588,45.714264336166224,62.404156679903345,13.421581122846403,0,320,10,1,13
43.72464570416311,45.714705450360036,62.404156679903345,13.421581122846403,0,320,10,1,14
43.72541970420588,45.714705450360036,62.404156679903345,13.421581122846403,0,128,10,1,15
43.72541970420588,45.714705450360036,62.404156679903345,13.421581122846403,0,128,10,2,17
43.72541970420588,45.714705450360036,62.39566833181335,68.28628157619423,0,128,10,2,18
43.72541970420588,45.714705450360036,62.39566833181335,68.2865251843835,0,256,10,2,19
43.72541970420588,45.714705450360036,62.39612373448012,68.2872096215692,0,256,10,2,20
43.72541970420588,45.714705450360036,62.39612373448012,68.29168327943896,0,256,10,2,21
43.72541970420588,45.714705450360036,62.39607996086888,68.2872096215692,0,256,10,2,22
43.72541970420588,45.714705450360036,62.39566833181335,68.28718158195866,0,256,10,2,23
43.72541970420588,45.714705450360036,62.39607996086888,68.28718158195866,0,256,10,2,24
43.72541970420588,45.714705450360036,62.39566833181335,68.28628157619423,0,256,10,2,25
43.72541970420588,45.714705450360036,62.39566833181335,68.28628157619423,0,256,10,2,26
43.72541970420588,45.714705450360036,62.39566833181335,68.28628157619423,0,256,10,2,27
43.72541970420588,45.714705450360036,62.39566833181335,68.28628157619423,0,256,10,2,28
43.72541970420588,45.714705450360036,62.39545495416884,68.2909712700098,0,256,10,2,29
43.72541970420588,45.714705450360036,62.39545495416884,68.2872096215692,0,448,10,2,30
43.72541970420588,45.714705450360036,62.39545495416884,68.2872096215692,0,448,10,2,31
43.72541970420588,45.714705450360036,62.39545495416884,68.28649756549413,0,448,10,2,32
43.72541970420588,45.714705450360036,62.39566833181335,68.28649756549413,0,448,10,2,33
43.72541970420588,45.714705450360036,62.399935332969704,68.2872096215692,0,448,10,2,34
43.72541970420588,45.714705450360036,62.399935332969704,68.2872096215692,0,448,10,2,35
43.72541970420588,45.714705450360036,62.39612373448012,68.2872096215692,0,384,10,2,36
43.72541970420588,45.714705450360036,62.39545495416884,68.2872096215692,0,384,10,2,37
43.72541970420588,45.714705450360036,62.39545495416884,68.28649756549413,0,384,10,2,38
43.72541970420588,45.714705450360036,62.39545495416884,68.29168327943896,0,384,10,2,39
43.72541970420588,45.714705450360036,62.40060406526239,68.29168327943896,0,384,10,2,40
43.72541970420588,45.714705450360036,62.40060406526239,68.29168327943896,0,384,10,2,41
43.72541970420588,45.714705450360036,62.399935332969704,68.2872096215692,0,384,10,2,42
43.72541970420588,45.714705450360036,62.39566833181335,68.28559725657746,0,384,10,2,43
43.72541970420588,45.714705450360036,62.39566833181335,68.28559725657746,0,384,10,2,44
43.72541970420588,45.714705450360036,62.39566833181335,68.28628157619423,0,384,10,2,45
43.72541970420588,45.714705450360036,62.39612373448012,68.2872096215692,0,448,10,2,46
43.72541970420588,45.714705450360036,62.39612373448012,68.2872096215692,0,448,10,2,47
43.72541970420588,45.714705450360036,62.40060406526239,68.2872096215692,0,448,10,2,48
43.72541970420588,45.714705450360036,62.39566833181335,68.2865251843835,0,448,10,2,49
43.72541970420588,45.714705450360036,62.39566833181335,68.28649756549413,0,448,10,2,50
43.72541970420588,45.714705450360036,62.39545495416884,68.28649756549413,0,320,10,2,51
43.72541970420588,45.714705450360036,62.39545495416884,68.28649756549413,0,320,10,2,52
43.72541970420588,45.714705450360036,62.39566833181335,68.28649756549413,0,320,10,2,53
43.72541970420588,45.714705450360036,62.39612373448012,68.2872096215692,0,320,10,2,54
43.72541970420588,45.714705450360036,62.39612373448012,68.29168327943896,0,320,10,2,55
43.72541970420588,45.714705450360036,62.399935332969704,68.29168327943896,0,448,10,2,56
43.72541970420588,45.714705450360036,62.40060406526239,68.2909712700098,0,448,10,2,57
43.72541970420588,45.714705450360036,62.399935332969704,68.28649756549413,0,448,10,2,58
43.72541970420588,45.714705450360036,62.39612373448012,68.28649756549413,0,448,10,2,59
43.72541970420588,45.714705450360036,62.39612373448012,68.28649756549413,0,192,10,2,60
43.72541970420588,45.714705450360036,62.39566833181335,68.28628157619423,0,128,10,2,61
43.72541970420588,45.714705450360036,62.39566833181335,68.28628157619423,0,128,10,2,62
43.72541970420588,45.714705450360036,62.39612373448012,68.2872096215692,0,128,10,2,63
43.72541970420588,45.714705450360036,62.40056038454908,68.29165533128682,0,128,10,2,64
43.72541970420588,45.714705450360036,62.40056038454908,68.29165533128682,0,128,10,2,65
43.72541970420588,45.714705450360036,62.39545495416884,68.2872096215692,0,128,10,2,66
43.72541970420588,45.714705450360036,62.39545495416884,68.28628157619423,0,192,10,2,67
43.72541970420588,45.714705450360036,62.39566833181335,68.28628157619423,0,192,10,2,68
43.72541970420588,45.714705450360036,62.39566833181335,68.28628157619423,0,256,10,2,69
43.72541970420588,45.714705450360036,62.39566833181335,68.28628157619423,0,256,10,2,70
43.72541970420588,45.714705450360036,62.39566833181335,68.2909712700098,0,256,10,2,71
43.72541970420588,45.714705450360036,62.39545495416884,68.2909712700098,0,256,10,2,72
43.72541970420588,45.714705450360036,62.39612373448012,68.2872096215692,0,256,10,2,73
43.72541970420588,45.714705450360036,62.39545495416884,68.2872096215692,0,256,10,2,74
43.72541970420588,45.714705450360036,62.39612373448012,68.2872096215692,0,256,10,2,75
43.72541970420588,45.714705450360036,62.39612373448012,68.2872096215692,0,448,10,2,76
43.72541970420588,45.714705450360036,62.39612373448012,68.28628157619423,0,448,10,2,77
43.72541970420588,45.714705450360036,62.39612373448012,68.28628157619423,0,448,10,2,78
43.72541970420588,45.714705450360036,62.39566833181335,68.28628157619423,0,448,10,2,79
43.72541970420588,45.714705450360036,62.39566833181335,68.28649756549413,0,448,10,2,80
43.72541970420588,45.714705450360036,62.39566833181335,68.28649756549413,0,256,10,2,81
43.72541970420588,45.714705450360036,62.39549834317237,68.2865251843835,0,256,10,2,82
43.72541970420588,45.714705450360036,62.39549834317237,68.2865251843835,0,256,10,2,83
43.72541970420588,45.714705450360036,62.395043043997774,68.28628157619423,0,256,10,2,84
43.72541970420588,45.714705450360036,62.395043043997774,68.28628157619423,0,256,10,2,85
43.72541970420588,45.714705450360036,62.39612373448012,68.2872096215692,0,256,10,2,86
43.72541970420588,45.714705450360036,62.39612373448012,68.2872096215692,0,256,10,2,87
43.72541970420588,45.714705450360036,62.39612373448012,68.2872096215692,0,256,10,2,88
43.72541970420588,45.714705450360036,62.399935332969704,68.2909712700098,0,256,10,2,89
43.72541970420588,45.714705450360036,62.399935332969704,68.2909712700098,0,256,10,2,90
43.72541970420588,45.714705450360036,62.399935332969704,68.2909712700098,0,384,10,2,91
43.72541970420588,45.714705450360036,62.39612373448012,68.2909712700098,0,384,10,2,92
43.72541970420588,45.714705450360036,62.39612373448012,68.2909712700098,0,384,10,2,93
43.72541970420588,45.714705450360036,62.39612373448012,68.29168327943896,0,384,10,2,94
43.72541970420588,45.714705450360036,62.39612373448012,68.2872096215692,0,384,10,2,95
43.72541970420588,45.714705450360036,62.39612373448012,68.2872096215692,0,320,10,2,96
43.72541970420588,45.714705450360036,62.39612373448012,68.2872096215692,0,320,10,2,97
43.72541970420588,45.714705450360036,62.39612373448012,68.2872096215692,0,320,10,2,98
43.72541970420588,45.714705450360036,62.39612373448012,68.2872096215692,0,320,10,2,99
43.72541970420588,45.714705450360036,62.39612373448012,68.2872096215692,0,320,10,2,100
43.72541970420588,45.714705450360036,62.39612373448012,68.2872096215692,0,320,10,2,101
43.72541970420588,45.714705450360036,62.39612373448012,68.2872096215692,0,320,10,2,102
43.72541970420588,45.714705450360036,62.39612373448012,68.2872096215692,0,320,10,2,103
43.72541970420588,45.714705450360036,62.39566833181335,68.28628157619423,0,320,10,2,104
43.72541970420588,45.714705450360036,62.39612373448012,68.2872096215692,0,320,10,2,105
43.72541970420588,45.714705450360036,62.39612373448012,68.2872096215692,0,320,10,2,106
43.72541970420588,45.714705450360036,62.39612373448012,68.2872096215692,0,256,10,2,107
43.72541970420588,45.714705450360036,62.39545495416884,68.28649756549413,0,256,10,2,108
43.72541970420588,45.714705450360036,62.39545495416884,68.28628157619423,0,256,10,2,109
43.72541970420588,45.714705450360036,62.39566833181335,68.28628157619423,0,256,10,2,110
43.72541970420588,45.714705450360036,62.40056038454908,68.29165533128682,0,64,10,2,111
43.72541970420588,45.714705450360036,62.40056038454908,68.29165533128682,0,64,10,2,112
43.72541970420588,45.714705450360036,62.399935332969704,68.2909712700098,0,64,10,2,113
43.72541970420588,45.714705450360036,62.399935332969704,68.2865251843835,0,320,10,2,114
43.72541970420588,45.714705450360036,62.39549834317237,68.2909712700098,0,320,10,2,115
43.7244359836639,45.714705450360036,62.39549834317237,68.2909712700098,0,256,10,1,117
43.72562936911731,45.71078864192476,62.39549834317237,68.2909712700098,0,256,10,1,118
43.72562936911731,45.71078864192476,62.39549834317237,68.2909712700098,0,256,10,1,119
43.72562936911731,45.71078864192476,62.39549834317237,68.2909712700098,0,256,10,1,120
43.72562936911731,45.71078864192476,62.39549834317237,68.2909712700098,0,128,10,1,121
43.726051230064485,45.71122965551039,62.39549834317237,68.2909712700098,0,128,10,1,122
43.72895411854121,45.714264336166224,62.39549834317237,68.2909712700098,0,128,10,1,123
43.72895411854121,45.714264336166224,62.39549834317237,68.2909712700098,0,384,10,1,124
43.72874450184863,45.714264336166224,62.39549834317237,68.2909712700098,0,384,10,1,125
43.72874450184863,45.714705450360036,62.39549834317237,68.2909712700098,0,448,10,1,126
43.72874450184863,45.714264336166224,62.39549834317237,68.2909712700098,0,448,10,1,127
43.72874450184863,45.714705450360036,62.39549834317237,68.2909712700098,0,448,10,1,128
43.72895411854121,45.714705450360036,62.39549834317237,68.2909712700098,0,448,10,1,129
43.729376075727274,45.714705450360036,62.39549834317237,68.2909712700098,0,448,10,1,130
43.729376075727274,45.714705450360036,62.39549834317237,68.2909712700098,0,320,10,1,131
43.726051230064485,45.71122965551039,62.39549834317237,68.2909712700098,0,320,10,1,132
43.726051230064485,45.71122965551039,62.39549834317237,68.2909712700098,0,320,10,1,133
43.726051230064485,45.71122965551039,62.39549834317237,68.2909712700098,0,320,10,1,134
43.72874450184863,45.714264336166224,62.39549834317237,68.2909712700098,0,320,10,1,135
43.726051230064485,45.714705450360036,62.39549834317237,68.2909712700098,0,256,10,1,136
43.726051230064485,45.71509213516547,62.39549834317237,68.2909712700098,0,256,10,1,137
43.72562936911731,45.71509213516547,62.39549834317237,68.2909712700098,0,256,10,1,138
43.726051230064485,45.71509213516547,62.39549834317237,68.2909712700098,0,256,10,1,139
43.72874450184863,45.714705450360036,62.39549834317237,68.2909712700098,0,256,10,1,140
43.72874450184863,45.714705450360036,62.39549834317237,68.2909712700098,0,384,10,1,141
43.729376075727274,45.714705450360036,62.39549834317237,68.2909712700098,0,384,10,1,142
43.72562936911731,45.714705450360036,62.39549834317237,68.2909712700098,0,384,10,1,143
43.72562936911731,45.714705450360036,62.39549834317237,68.2909712700098,0,384,10,1,144
43.72562936911731,45.714705450360036,62.39549834317237,68.2909712700098,0,384,10,1,145
43.72562936911731,45.714705450360036,62.39549834317237,68.2909712700098,0,256,10,1,146
43.729376075727274,45.714705450360036,62.39549834317237,68.2909712700098,0,256,10,1,147
43.726051230064485,45.714705450360036,62.39549834317237,68.2909712700098,0,256,10,1,148
43.72895411854121,45.715533190270826,62.39549834317237,68.2909712700098,0,256,10,1,149
43.72874450184863,45.715533190270826,62.39549834317237,68.2909712700098,0,256,10,1,150
43.72895411854121,45.714705450360036,62.39549834317237,68.2909712700098,0,256,10,1,151
43.72874450184863,45.714264336166224,62.39549834317237,68.2909712700098,0,448,10,1,152
43.72541970420588,45.711616637973336,62.39549834317237,68.2909712700098,0,448,10,1,153
43.72541970420588,45.71145120678236,62.39549834317237,68.2909712700098,0,448,10,1,154
43.72562936911731,45.71122965551039,62.39549834317237,68.2909712700098,0,448,10,1,155
43.726051230064485,45.71145120678236,62.39549834317237,68.2909712700098,0,448,10,1,156
43.72874450184863,45.714705450360036,62.39549834317237,68.2909712700098,0,384,10,1,157
43.72895411854121,45.714705450360036,62.39549834317237,68.2909712700098,0,384,10,1,158
43.72895411854121,45.714705450360036,62.39549834317237,68.2909712700098,0,384,10,1,159
43.72895411854121,45.714264336166224,62.39549834317237,68.2909712700098,0,384,10,1,160
43.72874450184863,45.714264336166224,62.39549834317237,68.2909712700098,0,384,10,1,161
43.72562936911731,45.71078864192476,62.39549834317237,68.2909712700098,0,256,10,1,162
43.72562936911731,45.71078864192476,62.39549834317237,68.2909712700098,0,256,10,1,163
43.72562936911731,45.71122965551039,62.39549834317237,68.2909712700098,0,256,10,1,164
43.72541970420588,45.71122965551039,62.39549834317237,68.2909712700098,0,256,10,1,165
43.72541970420588,45.71122965551039,62.39549834317237,68.2909712700098,0,128,10,1,166
43.72541970420588,45.71122965551039,62.39549834317237,68.2909712700098,0,128,10,1,167
43.72541970420588,45.71122965551039,62.39549834317237,68.2909712700098,0,128,10,1,168
43.72562936911731,45.71078864192476,62.39549834317237,68.2909712700098,0,128,10,1,169
43.72562936911731,45.71122965551039,62.39549834317237,68.2909712700098,0,128,10,1,170
43.72562936911731,45.71078864192476,62.39549834317237,68.2909712700098,0,128,10,1,171
43.72562936911731,45.71078864192476,62.39549834317237,68.2909712700098,0,64,10,1,172
43.72562936911731,45.71078864192476,62.39549834317237,68.2909712700098,0,64,10,1,173
43.72562936911731,45.71078864192476,62.39549834317237,68.2909712700098,0,64,10,1,174
43.72562936911731,45.71122965551039,62.39549834317237,68.2909712700098,0,320,10,1,175
43.72562936911731,45.71078864192476,62.39549834317237,68.2909712700098,0,384,10,1,176
43.72874450184863,45.714705450360036,62.39549834317237,68.2909712700098,0,384,10,1,177
43.726051230064485,45.71122965551039,62.39549834317237,68.2909712700098,0,384,10,1,178
43.72874450184863,45.714705450360036,62.39549834317237,68.2909712700098,0,384,10,1,179
43.729376075727274,45.714705450360036,62.39549834317237,68.2909712700098,0,384,10,1,180
43.729376075727274,45.714705450360036,62.39549834317237,68.2909712700098,0,384,10,1,181
43.72895411854121,45.714264336166224,62.39549834317237,68.2909712700098,0,384,10,1,182
43.726051230064485,45.714264336166224,62.39549834317237,68.2909712700098,0,384,10,1,183
43.726051230064485,45.714705450360036,62.39549834317237,68.2909712700098,0,384,10,1,184
43.726051230064485,45.714705450360036,62.39549834317237,68.2909712700098,0,384,10,1,185
43.72562936911731,45.71078864192476,62.39549834317237,68.2909712700098,0,448,10,1,186
43.72562936911731,45.71078864192476,62.39549834317237,68.2909712700098,0,448,10,1,187
43.72562936911731,45.71078864192476,62.39549834317237,68.2909712700098,0,448,10,1,188
43.726051230064485,45.71122965551039,62.39549834317237,68.2909712700098,0,448,10,1,189
43.726051230064485,45.71122965551039,62.39549834317237,68.2909712700098,0,448,10,1,190
43.726051230064485,45.71122965551039,62.39549834317237,68.2909712700098,0,448,10,1,191
43.72562936911731,45.71122965551039,62.39549834317237,68.2909712700098,0,384,10,1,192
43.72541970420588,45.71122965551039,62.39549834317237,68.2909712700098,0,384,10,1,193
43.72541970420588,45.71122965551039,62.39549834317237,68.2909712700098,0,384,10,1,194
43.72541970420588,45.71122965551039,62.39549834317237,68.2909712700098,0,384,10,1,195
43.72562936911731,45.71145120678236,62.39549834317237,68.2909712700098,0,384,10,1,196
43.72562936911731,45.71509213516547,62.39549834317237,68.2909712700098,0,320,10,1,197
43.72562936911731,45.714264336166224,62.39549834317237,68.2909712700098,0,320,10,1,198
43.72562936911731,45.714264336166224,62.39549834317237,68.2909712700098,0,320,10,1,199
43.72562936911731,45.71145120678236,62.39549834317237,68.2909712700098,0,320,10,1,200
43.72562936911731,45.71145120678236,62.39549834317237,68.2909712700098,0,320,10,1,201
43.72562936911731,45.714705450360036,62.39549834317237,68.2909712700098,0,448,10,1,202
43.7291662082486,45.71509213516547,62.39549834317237,68.2909712700098,0,448,10,1,203
43.7291662082486,45.71492695140302,62.39549834317237,68.2909712700098,0,448,10,1,204
43.72895411854121,45.71492695140302,62.39549834317237,68.2909712700098,0,448,10,1,205
43.72895411854121,45.71492695140302,62.39549834317237,68.2909712700098,0,448,10,1,206
43.72895411854121,45.714705450360036,62.39549834317237,68.2909712700098,0,448,10,1,207
43.72562936911731,45.714705450360036,62.39549834317237,68.2909712700098,0,448,10,1,208
43.726051230064485,45.714264336166224,62.39549834317237,68.2909712700098,0,448,10,1,209
43.72562936911731,45.714264336166224,62.39549834317237,68.2909712700098,0,448,10,1,210
43.726051230064485,45.71122965551039,62.39549834317237,68.2909712700098,0,448,10,1,211
43.72562936911731,45.71509213516547,62.39549834317237,68.2909712700098,0,448,10,1,212
43.72562936911731,45.71122965551039,62.39549834317237,68.2909712700098,0,448,10,1,213
43.72541970420588,45.71509213516547,62.39549834317237,68.2909712700098,0,448,10,1,214
43.72541970420588,45.714705450360036,62.39549834317237,68.2909712700098,0,448,10,1,215
43.72541970420588,45.714705450360036,62.39545495416884,68.2872096215692,0,192,10,2,217
43.72541970420588,45.714705450360036,62.39545495416884,68.2909712700098,0,192,10,2,218
43.72541970420588,45.714705450360036,62.39549834317237,68.29099879741415,0,192,10,2,219
43.72541970420588,45.714705450360036,62.39612373448012,68.29168327943896,0,256,10,2,220
43.72541970420588,45.714705450360036,62.39612373448012,68.29168327943896,0,256,10,2,221
43.72541970420588,45.714705450360036,62.39612373448012,68.29168327943896,0,256,10,2,222
43.72541970420588,45.714705450360036,62.39612373448012,68.29168327943896,0,256,10,2,223
43.72541970420588,45.714705450360036,62.39612373448012,68.29168327943896,0,256,10,2,224
43.72541970420588,45.714705450360036,62.39612373448012,68.29168327943896,0,256,10,2,225
43.72541970420588,45.714705450360036,62.39612373448012,68.29168327943896,0,384,10,2,226
43.72541970420588,45.714705450360036,62.39612373448012,68.2909712700098,0,384,10,2,227
43.72541970420588,45.714705450360036,62.399935332969704,68.29168327943896,0,384,10,2,228
43.72541970420588,45.714705450360036,62.40060406526239,68.29168327943896,0,384,10,2,229
43.72541970420588,45.714705450360036,62.40060406526239,68.29168327943896,0,384,10,2,230
43.72541970420588,45.714705450360036,62.39612373448012,68.29168327943896,0,384,10,2,231
43.72541970420588,45.714705450360036,62.39549834317237,68.29099879741415,0,448,10,2,232
43.72541970420588,45.714705450360036,62.39612373448012,68.29168327943896,0,448,10,2,233
43.72541970420588,45.714705450360036,62.399935332969704,68.29168327943896,0,448,10,2,234
43.72541970420588,45.714705450360036,62.399935332969704,68.29168327943896,0,448,10,2,235
43.72541970420588,45.714705450360036,62.39612373448012,68.29168327943896,0,448,10,2,236
43.72541970420588,45.714705450360036,62.39566833181335,68.28628157619423,0,448,10,2,237
43.72541970420588,45.714705450360036,62.39612373448012,68.29099879741415,0,448,10,2,238
43.72541970420588,45.714705450360036,62.39997862904865,68.2909712700098,0,448,10,2,239
43.72541970420588,45.714705450360036,62.40060406526239,68.29099879741415,0,448,10,2,240
43.72541970420588,45.714705450360036,62.40060406526239,68.2909712700098,0,448,10,2,241
43.72541970420588,45.714705450360036,62.40060406526239,68.29168327943896,0,320,10,2,242
43.72541970420588,45.714705450360036,62.40060406526239,68.29168327943896,0,320,10,2,243
43.72541970420588,45.714705450360036,62.40060406526239,68.29168327943896,0,320,10,2,244
43.72541970420588,45.714705450360036,62.39612373448012,68.29168327943896,0,320,10,2,245
43.72541970420588,45.714705450360036,62.39612373448012,68.29099879741415,0,320,10,2,246
43.72541970420588,45.714705450360036,62.39612373448012,68.2872096215692,0,320,10,2,247
43.72541970420588,45.714705450360036,62.39612373448012,68.2872096215692,0,320,10,2,248
43.72541970420588,45.714705450360036,62.39612373448012,68.29099879741415,0,320,10,2,249
43.72541970420588,45.714705450360036,62.39612373448012,68.29168327943896,0,320,10,2,250
43.72541970420588,45.714705450360036,62.39612373448012,68.29168327943896,0,320,10,2,251
43.72541970420588,45.714705450360036,62.40014831538206,68.29168327943896,0,256,10,2,252
43.72541970420588,45.714705450360036,62.40014831538206,68.29075488763458,0,256,10,2,253
43.72541970420588,45.714705450360036,62.39612373448012,68.29075488763458,0,256,10,2,254
43.72541970420588,45.714705450360036,62.39612373448012,68.29168327943896,0,256,10,2,255
43.72541970420588,45.714705450360036,62.39612373448012,68.29168327943896,0,256,10,2,0
43.72541970420588,45.714705450360036,62.39612373448012,68.29168327943896,0,448,10,2,1
43.72541970420588,45.714705450360036,62.40060406526239,68.29168327943896,0,448,10,2,2
43.72541970420588,45.714705450360036,62.40060406526239,68.29168327943896,0,448,10,2,3
43.72541970420588,45.714705450360036,62.40060406526239,68.29168327943896,0,448,10,2,4
43.72541970420588,45.714705450360036,62.39612373448012,68.2872096215692,0,192,10,2,5
43.72541970420588,45.714705450360036,62.39612373448012,68.2872096215692,0,192,10,2,6
43.72541970420588,45.714705450360036,62.39612373448012,68.2872096215692,0,128,10,2,7
43.72541970420588,45.714705450360036,62.39612373448012,68.2872096215692,0,128,10,2,8
43.72541970420588,45.714705450360036,62.39612373448012,68.29168327943896,0,128,10,2,9
43.72541970420588,45.714705450360036,62.39612373448012,68.29168327943896,0,128,10,2,10
43.72541970420588,45.714705450360036,62.39545495416884,68.2909712700098,0,128,10,2,11
43.72541970420588,45.714705450360036,62.39545495416884,68.2909712700098,0,64,10,2,12
43.72541970420588,45.714705450360036,62.39612373448012,68.29168327943896,0,64,10,2,13
43.72541970420588,45.714705450360036,62.39612373448012,68.29168327943896,0,320,10,2,14
43.72541970420588,45.714705450360036,62.39997862904865,68.29168327943896,0,320,10,2,15
43.72541970420588,45.714705450360036,62.39612373448012,68.29099879741415,0,448,10,2,16
43.72541970420588,45.714705450360036,62.39566833181335,68.29075488763458,0,448,10,2,17
43.72541970420588,45.714705450360036,62.39566833181335,68.29075488763458,0,448,10,2,18
43.72541970420588,45.714705450360036,62.39612373448012,68.29165533128682,0,448,10,2,19
43.72541970420588,45.714705450360036,62.39612373448012,68.29165533128682,0,448,10,2,20
43.72541970420588,45.714705450360036,62.39612373448012,68.2872096215692,0,448,10,2,21
43.72541970420588,45.714705450360036,62.39612373448012,68.2872096215692,0,448,10,2,22
43.72541970420588,45.714705450360036,62.39612373448012,68.2909712700098,0,448,10,2,23
43.72541970420588,45.714705450360036,62.39545495416884,68.29168327943896,0,448,10,2,24
43.72541970420588,45.714705450360036,62.39545495416884,68.2909712700098,0,448,10,2,25
43.72541970420588,45.714705450360036,62.39545495416884,68.29168327943896,0,256,10,2,26
43.72541970420588,45.714705450360036,62.394999652415734,68.28628157619423,0,256,10,2,27
43.72541970420588,45.714705450360036,62.399935332969704,68.29168327943896,0,256,10,2,28
43.72541970420588,45.714705450360036,62.39612373448012,68.29168327943896,0,256,10,2,29
